0,-0.0548001974109528
0.001,1.54302553390764
0.002,2.50839572598726
0.003,3.29221235951589
0.004,4.67618080174088
0.005,4.37905952004575
0.006,4.5227520916214
0.007,4.00723615281557
0.008,2.57172817208458
0.009,1.2561939379354
0.01,0.0879888576515343
0.011,-0.658014807235698
0.012,-1.02902358306508
0.013,-1.24950744476374
0.014,-1.21942549315138
0.015,-1.1831825913343
0.016,-1.20732754829418
0.017,-1.24964353161047
0.018,-1.22765186016371
0.019,-0.702436121421385
0.02,-0.260451038769803
0.021,1.04752178171006
0.022,2.0569669452149
0.023,3.53353871454389
0.024,4.25030632357441
0.025,4.8881394897814
0.026,4.39201504265067
0.027,3.39395563560171
0.028,2.66270989337271
0.029,0.690552248783461
0.03,0.0510895709000764
0.031,-0.77688116787433
0.032,-1.10662807003599
0.033,-1.24982101002562
0.034,-1.24993634544083
0.035,-1.18654456419447
0.036,-1.12467977360822
0.037,-1.24618448492953
0.038,-1.08336244838327
0.039,-0.953045734788928
0.04,0.111388969546969
0.041,1.42182481174581
0.042,2.07078877895677
0.043,3.8536111464475
0.044,4.81201316309846
0.045,4.23290870108201
0.046,4.64859412422045
0.047,3.75518474719591
0.048,2.02334028331522
0.049,0.851990926395995
0.05,-0.00178150407696861
0.051,-0.851996306729354
0.052,-1.17786557424717
0.053,-1.24989455600784
0.054,-1.14146091414773
0.055,-1.22069125618277
0.056,-1.18956075528429
0.057,-1.21920735605244
0.058,-1.13249557978496
0.059,-0.677567024412106
0.06,-0.449310235120649
0.061,1.21110454595192
0.062,2.09066476373088
0.063,3.20354907835881
0.064,4.67176695477477
0.065,5.55672953621068
0.066,4.52752440338735
0.067,3.80619004390206
0.068,2.17622855415355
0.069,1.25705017721353
0.07,0.106437561007283
0.071,-0.62688165160493
0.072,-1.1439305487035
0.073,-1.2480276486382
0.074,-1.1933718448896
0.075,-1.10845728522747
0.076,-1.22555363758498
0.077,-1.24188584794351
0.078,-1.00436455074319
0.079,-0.725421775111692
0.08,-0.0128957511410821
0.081,1.01265819362736
0.082,2.12457728579066
0.083,4.39882374891473
0.084,4.39530038011906
0.085,5.85724449350165
0.086,4.44450669953811
0.087,3.688099757006
0.088,2.90421782227772
0.089,0.847234056411449
0.09,-0.154788851595869
0.091,-0.77009408669021
0.092,-1.03951826860022
0.093,-1.24961963860036
0.094,-1.24266470808074
0.095,-1.17925941120744
0.096,-1.22406446741797
0.097,-1.24972471121242
0.098,-1.22672210728079
0.099,-0.653027716584311
0.1,-0.0242421883187138
0.101,0.458571421015486
0.102,2.08358423249475
0.103,3.21493913992707
0.104,4.87620241958621
0.105,4.72526787062886
0.106,4.35228845492214
0.107,3.54025130215391
0.108,2.15212462931266
0.109,1.30309149410599
0.11,0.130143508677829
0.111,-0.755867249989097
0.112,-1.05542853128014
0.113,-1.19891732870349
0.114,-1.21485637739575
0.115,-1.20295456310492
0.116,-1.24273110950285
0.117,-1.2246676612741
0.118,-1.14295209498637
0.119,-0.851699782289838
0.12,0.172467400162207
0.121,1.18035002587872
0.122,2.50309118475152
0.123,3.19474182088955
0.124,5.16216243193493
0.125,3.99411793126646
0.126,4.73439105705766
0.127,3.53872282343667
0.128,2.44274762357546
0.129,1.68200562990163
0.13,0.160478161529028
0.131,-0.720669141906512
0.132,-1.22967213738368
0.133,-1.24999443455443
0.134,-1.23495644160148
0.135,-1.18693280206036
0.136,-1.24159280190841
0.137,-1.24927433080833
0.138,-1.18856006627749
0.139,-0.651597974514319
0.14,-0.00330991857197569
0.141,1.69553782616513
0.142,2.17988306202371
0.143,3.22471552641529
0.144,4.37546152772399
0.145,4.37506603195201
0.146,4.2829806939613
0.147,3.34429849523388
0.148,2.04926075653839
0.149,1.6299605342269
0.15,0.0246652447132052
0.151,-0.51270443368904
0.152,-1.15883892995591
0.153,-1.24862014450099
0.154,-1.21222547356169
0.155,-1.16653176707984
0.156,-1.23365247346307
0.157,-1.24979507297505
0.158,-1.21034381162517
0.159,-0.794121087654522
0.16,-0.145804475453267
0.161,1.10272962674621
0.162,2.38823605740482
0.163,3.48704028795355
0.164,3.66854268136381
0.165,5.15080384555256
0.166,5.32725090146453
0.167,3.37904323704597
0.168,2.51854942587648
0.169,1.00525564953095
0.17,0.127211482259383
0.171,-0.857622712667129
0.172,-1.17011697083127
0.173,-1.24877339348383
0.174,-1.176201207885
0.175,-1.24738280532828
0.176,-1.2348129297119
0.177,-1.24877485707805
0.178,-1.11745559997786
0.179,-0.259874996937562
0.18,-0.187010904134136
0.181,0.943836164386399
0.182,2.21403555306353
0.183,3.91547686594482
0.184,4.92679769537135
0.185,4.80876250990766
0.186,3.96613607757863
0.187,3.44688664849767
0.188,2.16132755604793
0.189,0.706601723903082
0.19,-0.146500796238156
0.191,-0.674401609428886
0.192,-1.19062828577074
0.193,-1.24274390910893
0.194,-1.22928867263667
0.195,-1.22417996960339
0.196,-1.24967143571803
0.197,-1.23570154159752
0.198,-1.14247735343597
0.199,-0.767728289499996
0.2,0.49414692635444
0.201,0.830383547305827
0.202,2.38560055461439
0.203,3.08169105789762
0.204,4.39509078101341
0.205,4.26482254902704
0.206,4.3298547111396
0.207,3.60978719093482
0.208,2.9003052778489
0.209,0.903307641027974
0.21,-0.00685992472303286
0.211,-0.851994712896354
0.212,-1.14491414895634
0.213,-1.24998008510868
0.214,-1.17077615577009
0.215,-1.23828921446227
0.216,-1.24329578369877
0.217,-1.24831105022738
0.218,-1.19730844884184
0.219,-0.762750746636409
0.22,0.0114065657209949
0.221,0.843940174802483
0.222,2.84539071514654
0.223,3.40847929744968
0.224,4.89934436379382
0.225,5.20799611068543
0.226,4.60017252897005
0.227,4.1844849937733
0.228,2.47670171711481
0.229,0.902746636466246
0.23,-0.116779294389112
0.231,-0.85540886034269
0.232,-1.1272755959503
0.233,-1.23626290656939
0.234,-1.22556942038813
0.235,-1.22188495001913
0.236,-1.24404451295062
0.237,-1.24809532241305
0.238,-1.17211850880056
0.239,-0.576047425340421
0.24,-0.270626999743781
0.241,1.64424026641478
0.242,2.4112822800234
0.243,3.38720006175051
0.244,4.7878003483726
0.245,4.75998240911164
0.246,5.25052307305893
0.247,3.71336700644949
0.248,2.54231069946345
0.249,0.859933298032218
0.25,0.3059389565594
0.251,-0.886248578407715
0.252,-1.22446080686045
0.253,-1.24775579234318
0.254,-1.23497850697008
0.255,-1.2306910729914
0.256,-1.24659733115156
0.257,-1.22071033746076
0.258,-1.08679332573692
0.259,-0.835650614164967
0.26,0.344023470831689
0.261,1.15876129137497
0.262,2.16931826545527
0.263,3.1359117647119
0.264,4.75351552121404
0.265,4.18730377734963
0.266,4.45678655572919
0.267,4.137802008478
0.268,2.31178751776865
0.269,1.22406729087387
0.27,0.196169370054708
0.271,-0.54627025102842
0.272,-1.19901218322937
0.273,-1.24966043943894
0.274,-1.23832439122055
0.275,-1.22660217659814
0.276,-1.22332369084862
0.277,-1.24973642252705
0.278,-1.14579326163221
0.279,-0.713132083981823
0.28,0.0278742041889873
0.281,1.85667151334076
0.282,2.5029964574791
0.283,3.68941826775924
0.284,4.26608432895338
0.285,4.46215376911238
0.286,3.91277008422257
0.287,3.59553654574091
0.288,3.02556269199112
0.289,0.889110894413075
0.29,0.527794857463671
0.291,-0.953427955987355
0.292,-1.08732757797304
0.293,-1.24996355264034
0.294,-1.21850475029766
0.295,-1.23819367168208
0.296,-1.24115788292817
0.297,-1.21125606422277
0.298,-1.1472889297413
0.299,-0.60110809667608
0.3,0.060765609594798
0.301,1.09822396432215
0.302,2.51432895892145
0.303,3.5811552648554
0.304,4.65711622707595
0.305,4.19107349018599
0.306,4.3191641117558
0.307,3.48720331231068
0.308,3.01419571549531
0.309,0.908405896008138
0.31,0.206756262337029
0.311,-0.519955710224821
0.312,-1.14698357059593
0.313,-1.24188047644589
0.314,-1.17203631329897
0.315,-1.19015995057538
0.316,-1.2193806550753
0.317,-1.2374839110726
0.318,-1.02452523121535
0.319,-0.774100258257109
0.32,0.228409539274086
0.321,1.07367938255144
0.322,2.49289350174207
0.323,3.59392328798734
0.324,4.31312982503902
0.325,5.28827953121102
0.326,4.3894200354015
0.327,3.31426907566239
0.328,2.04295480964696
0.329,0.596397324468294
0.33,0.138707464241175
0.331,-0.786752507626082
0.332,-1.12315694001985
0.333,-1.24999147676422
0.334,-1.24943797613149
0.335,-1.14403289878347
0.336,-1.21122085637636
0.337,-1.24981785001562
0.338,-1.12910770291884
0.339,-0.683909754275208
0.34,0.000973110991291267
0.341,1.02412922385688
0.342,2.33583020521167
0.343,3.32490858895966
0.344,5.20303845421444
0.345,5.24934406391628
0.346,4.15180005756653
0.347,3.91898258434617
0.348,2.07084353429784
0.349,0.99628462004568
0.35,-0.0283008575258923
0.351,-0.799815914348208
0.352,-1.2239605316231
0.353,-1.24732638717319
0.354,-1.12630655237106
0.355,-1.20179331650983
0.356,-1.24641043628374
0.357,-1.24840259270074
0.358,-1.06239614614212
0.359,-0.902362541131953
0.36,-0.300398135459777
0.361,0.79585637987223
0.362,2.44904255853313
0.363,3.31699203410269
0.364,4.3073665431276
0.365,4.58443428900591
0.366,5.12306645293096
0.367,3.07966643823167
0.368,2.31661954553166
0.369,1.44455403080156
0.37,-0.298232446134321
0.371,-0.620567097329225
0.372,-1.10552917501673
0.373,-1.24707262026167
0.374,-1.24274441445736
0.375,-1.1853773043323
0.376,-1.21305446480189
0.377,-1.20332338855161
0.378,-1.15359698128905
0.379,-0.907260642095963
0.38,-0.2651021007061
0.381,1.09968589894343
0.382,2.1528302478745
0.383,2.90896917456149
0.384,4.34610650348434
0.385,5.28629100789721
0.386,4.83944533657412
0.387,3.15714900639669
0.388,1.94552740939755
0.389,0.684120520435703
0.39,0.108218602456772
0.391,-0.791500227877981
0.392,-1.1392352727379
0.393,-1.23821263048484
0.394,-1.20338358515128
0.395,-1.20827688955401
0.396,-1.24222340646018
0.397,-1.24914563364325
0.398,-1.15727564108359
0.399,-0.533517375871513
0.4,-0.270427965866381
0.401,1.08553155534409
0.402,2.20114693137793
0.403,3.51019585830983
0.404,4.45489208692962
0.405,4.49431563571272
0.406,4.37618702737312
0.407,3.67600849093823
0.408,3.11469216137526
0.409,0.859654285709525
0.41,0.230619731088847
0.411,-0.65519147105938
0.412,-1.18382825057518
0.413,-1.23289668806012
0.414,-1.21656152370531
0.415,-1.18659679942183
0.416,-1.22726937548101
0.417,-1.24985395522635
0.418,-1.23657634135234
0.419,-0.848135999820694
0.42,-0.145912694936794
0.421,1.03384383920534
0.422,2.13920407695581
0.423,4.12780384359418
0.424,4.74302216490428
0.425,5.74451202471323
0.426,4.17845862251003
0.427,3.92239825521896
0.428,2.14350032549323
0.429,1.35401633891901
0.43,-0.255228521618353
0.431,-0.712549297291769
0.432,-1.11265425649067
0.433,-1.24080591315059
0.434,-1.16814209488438
0.435,-1.17884904151819
0.436,-1.23247629787308
0.437,-1.2464739403447
0.438,-1.21513833851042
0.439,-0.915146406236862
0.44,-0.255150047570848
0.441,1.1511717743613
0.442,2.55426519201649
0.443,4.04531103710899
0.444,3.94464977794466
0.445,5.05291180098153
0.446,4.43171621293201
0.447,3.41005774449842
0.448,2.26365692917552
0.449,1.15253229329545
0.45,-0.150314038966783
0.451,-0.690205928025724
0.452,-1.18327586930568
0.453,-1.24928067849336
0.454,-1.24763308931985
0.455,-1.24958347123501
0.456,-1.19874818802515
0.457,-1.24992922825423
0.458,-1.13754477520549
0.459,-0.59682749814038
0.46,-0.449844897114334
0.461,0.700878570200358
0.462,2.57441986277457
0.463,4.04056619687039
0.464,4.1121378640961
0.465,5.285036695098
0.466,3.97125351434066
0.467,3.04724269452667
0.468,2.64055630555689
0.469,1.19540454702541
0.47,-0.1003185953781
0.471,-0.840273845032934
0.472,-0.95352865441998
0.473,-1.24687455375774
0.474,-1.20385541055467
0.475,-1.19309209196288
0.476,-1.24623917530084
0.477,-1.24870015331857
0.478,-1.08093506292732
0.479,-0.684020807072394
0.48,0.192045299346954
0.481,1.18876604188728
0.482,2.43733556070199
0.483,3.84701944956551
0.484,4.6787367840621
0.485,3.91543642041207
0.486,4.22441963708274
0.487,3.55699915454708
0.488,2.79346153545797
0.489,0.934868343431565
0.49,-0.000253381631772427
0.491,-0.789470099025955
0.492,-1.10355251514935
0.493,-1.24968559080297
0.494,-1.24751574818985
0.495,-1.22785476362164
0.496,-1.21029558772975
0.497,-1.22415747110633
0.498,-1.09365140519379
0.499,-0.796573650035945
0.5,-0.172912392531923
0.501,1.45923228274661
0.502,2.36393760013209
0.503,3.89577052649462
0.504,4.12719454193804
0.505,5.35313637696942
0.506,4.32168761937327
0.507,3.83601937722065
0.508,2.3367519735857
0.509,1.11372465763269
0.51,0.204808539793335
0.511,-0.538931581352614
0.512,-1.14803485539575
0.513,-1.24994231961894
0.514,-1.2085915330266
0.515,-1.12292408156957
0.516,-1.2137322188345
0.517,-1.24761860476195
0.518,-1.13593030789355
0.519,-0.548760049901582
0.52,0.161337403760418
0.521,0.584998422654985
0.522,1.69903826051025
0.523,3.30215757047586
0.524,4.35784193600403
0.525,4.72489935967118
0.526,4.71200000631625
0.527,4.05224686940434
0.528,2.86986378174715
0.529,0.861031352900032
0.53,0.023793364013123
0.531,-0.772462581557281
0.532,-1.17891756573785
0.533,-1.24159161663844
0.534,-1.21173942889661
0.535,-1.16637893567604
0.536,-1.23460915277278
0.537,-1.24714401611759
0.538,-1.22025363471785
0.539,-0.91660953100947
0.54,-0.347246811947217
0.541,1.23732117805464
0.542,2.69839275743984
0.543,3.19632332198072
0.544,4.73264963750282
0.545,4.83278353447351
0.546,4.68102992636468
0.547,3.8606191907879
0.548,2.50879482444966
0.549,1.14329445539623
0.55,0.145712666689333
0.551,-0.791517531016453
0.552,-1.12350296715211
0.553,-1.23883227431685
0.554,-1.15911170025506
0.555,-1.13741310376986
0.556,-1.2482823459654
0.557,-1.24999841212612
0.558,-1.19833134189531
0.559,-0.551370740696781
0.56,-0.374936775041085
0.561,1.50503210261942
0.562,3.33051530685968
0.563,3.54628489600077
0.564,4.99247112973024
0.565,4.39805484987744
0.566,4.12707218267107
0.567,4.00816737313367
0.568,2.41569602618209
0.569,0.685568406892901
0.57,0.117558870265092
0.571,-0.585131295483415
0.572,-1.16060171114822
0.573,-1.22702037289573
0.574,-1.22365791360138
0.575,-1.21546040921532
0.576,-1.21853118589352
0.577,-1.24923870161598
0.578,-1.17831292959111
0.579,-0.633337401944163
0.58,0.051768686464357
0.581,1.29453264012299
0.582,2.59266405778068
0.583,3.17794471831194
0.584,4.29475385655272
0.585,4.94384161873242
0.586,4.20315670377737
0.587,4.16651830076614
0.588,2.6440541539455
0.589,0.795524648929433
0.59,0.061862090152693
0.591,-0.99000353208947
0.592,-1.09636901668469
0.593,-1.23898969444616
0.594,-1.20666952984458
0.595,-1.2238562755523
0.596,-1.18842739604663
0.597,-1.2496114030367
0.598,-1.14027840726896
0.599,-0.831573205506165
0.6,0.0264093556978813
0.601,1.03081939844488
0.602,2.02486045813127
0.603,3.75966086100032
0.604,4.66186820075383
0.605,4.84980178572206
0.606,4.53978642245746
0.607,3.87292337428129
0.608,2.51193250974942
0.609,1.50458602762604
0.61,-0.352020349959931
0.611,-0.638196089208438
0.612,-1.08292710147206
0.613,-1.24978101022647
0.614,-1.24100108195976
0.615,-1.19587115688201
0.616,-1.20064580018999
0.617,-1.24952338989207
0.618,-1.12006389541453
0.619,-0.78256355261464
0.62,-0.185263675115772
0.621,0.410460582871738
0.622,2.09643663915721
0.623,3.51345422514454
0.624,4.58674190079536
0.625,4.61250125710779
0.626,4.33252880160787
0.627,3.51205743024314
0.628,2.00925558313722
0.629,1.06730227351118
0.63,0.20463570450646
0.631,-0.777318469010639
0.632,-1.1556223278617
0.633,-1.24638686075481
0.634,-1.2492356714879
0.635,-1.23351726546973
0.636,-1.21863170778794
0.637,-1.24999943493658
0.638,-1.0454232042905
0.639,-0.761272224986963
0.64,0.140513616579018
0.641,0.712228992109151
0.642,2.08459640109769
0.643,3.92086996404846
0.644,4.5511515931595
0.645,4.99635185431686
0.646,5.356924260698
0.647,4.34497905965263
0.648,3.01937356284282
0.649,1.28364647216719
0.65,-0.0786291263959835
0.651,-0.60744226983076
0.652,-1.16851137347577
0.653,-1.23372725954864
0.654,-1.20312020915815
0.655,-1.18341129280565
0.656,-1.18754671214885
0.657,-1.23629757520997
0.658,-1.06742584771077
0.659,-0.905122821112593
0.66,0.167176232898139
0.661,1.0713283183819
0.662,2.28901290599598
0.663,3.40191084478354
0.664,4.16062401008877
0.665,4.40000565374785
0.666,4.52569470851362
0.667,3.9523100049153
0.668,2.09138056782928
0.669,1.27659451690476
0.67,-0.12968462986687
0.671,-0.820742503541966
0.672,-1.1576581542992
0.673,-1.24928460093225
0.674,-1.19622288787196
0.675,-1.19594766718713
0.676,-1.24044722297533
0.677,-1.2476134766002
0.678,-1.0813083730767
0.679,-0.609254743946301
0.68,0.144630131290975
0.681,0.882931390501857
0.682,2.25979301947695
0.683,4.46233665445144
0.684,3.94401760884931
0.685,4.83978250973417
0.686,4.6553726698907
0.687,3.02735663217376
0.688,2.21993207030475
0.689,1.14467108501202
0.69,-0.218846543114901
0.691,-0.729633038434929
0.692,-1.12567605256431
0.693,-1.24419113592669
0.694,-1.22364764962716
0.695,-1.15602872851205
0.696,-1.23045657686706
0.697,-1.21558364713995
0.698,-1.03305779928783
0.699,-0.770073503390115
0.7,-0.289190443268754
0.701,1.29955542883529
0.702,2.17479279724369
0.703,2.89267535071946
0.704,5.01004369607613
0.705,5.06628659374308
0.706,5.74742245965799
0.707,3.11988714200459
0.708,2.41733506106213
0.709,0.965820135587673
0.71,-0.0780222375513839
0.711,-0.951638939904172
0.712,-1.16274542155164
0.713,-1.24995844536446
0.714,-1.24665885806431
0.715,-1.16232131223769
0.716,-1.22826505836538
0.717,-1.24933081522025
0.718,-1.15906848856809
0.719,-0.896948387422049
0.72,0.0545224495000309
0.721,0.984645977617133
0.722,2.67405597921158
0.723,3.80252239110441
0.724,4.42944063682524
0.725,4.76585893233128
0.726,5.36912641665984
0.727,3.12431790547379
0.728,2.00349106868289
0.729,1.26012630765086
0.73,0.0950374808817806
0.731,-0.692802177050334
0.732,-1.16020119704203
0.733,-1.24917082236987
0.734,-1.13798904963228
0.735,-1.14692807825871
0.736,-1.16295287536036
0.737,-1.24528795298633
0.738,-1.09243662386294
0.739,-0.719887833431857
0.74,0.0660989904026476
0.741,1.32417612379535
0.742,2.730973263047
0.743,3.68905303641428
0.744,5.62649860802335
0.745,4.46750012908411
0.746,3.73171095566576
0.747,2.96441929973826
0.748,2.48563892675079
0.749,0.804978195360153
0.75,0.335759213698304
0.751,-0.765515838962194
0.752,-1.16964276848433
0.753,-1.23860992508409
0.754,-1.20009967343367
0.755,-1.19531680881431
0.756,-1.2437176619398
0.757,-1.24942351005571
0.758,-1.15267289838978
0.759,-0.737946764630651
0.76,0.246260639549073
0.761,0.999821160231237
0.762,2.68218554221662
0.763,4.21728178923233
0.764,4.02762205663623
0.765,5.08216766452002
0.766,5.50848337572785
0.767,3.61962729871264
0.768,2.42259944003748
0.769,1.19224474688482
0.77,-0.127843640738662
0.771,-0.872357997229453
0.772,-1.02734010080278
0.773,-1.24953225422953
0.774,-1.19674751002086
0.775,-1.16902420090726
0.776,-1.24798285612417
0.777,-1.23568893498392
0.778,-1.1507501696908
0.779,-0.662432496059823
0.78,-0.00357356579253973
0.781,0.494960457233645
0.782,2.22814639357859
0.783,3.27264317770365
0.784,4.39930163708934
0.785,4.46769520154693
0.786,4.4398769901814
0.787,4.04601331224178
0.788,2.35490836729182
0.789,0.955825475714397
0.79,0.0641257100658448
0.791,-0.688906061401326
0.792,-1.07164692999028
0.793,-1.23875428243561
0.794,-1.23747360605572
0.795,-1.21194804566167
0.796,-1.24739984891574
0.797,-1.2496116455085
0.798,-1.1487151963822
0.799,-0.831502620539722
0.8,-0.0586968632931865
0.801,1.09367653176867
0.802,2.63801786930044
0.803,3.31426927011347
0.804,4.91735117562901
0.805,4.94345129079975
0.806,4.39672695399244
0.807,3.39557602256025
0.808,2.34378531821356
0.809,0.912766069694186
0.81,0.223635351039148
0.811,-0.74657943295928
0.812,-1.08426874071742
0.813,-1.23755838156197
0.814,-1.14833692272248
0.815,-1.23168379004612
0.816,-1.24653425277658
0.817,-1.24653718798974
0.818,-1.21866209234776
0.819,-0.388778155205917
0.82,0.123728200760366
0.821,1.31230732836825
0.822,2.81495893362519
0.823,3.36600443637653
0.824,4.1617618779408
0.825,4.56764833959714
0.826,4.21781726402266
0.827,3.25655235450209
0.828,2.66768249984607
0.829,1.06721689698868
0.83,0.164218902476211
0.831,-0.501965015219687
0.832,-1.07057197823774
0.833,-1.19902738613093
0.834,-1.23742074044819
0.835,-1.18778330747157
0.836,-1.23454276769401
0.837,-1.24786125868448
0.838,-1.11646284108547
0.839,-0.803617837407609
0.84,0.196855988501333
0.841,1.2815853402269
0.842,2.58957838520202
0.843,3.29635967440834
0.844,4.32917775663314
0.845,4.47551197894124
0.846,3.95463921246003
0.847,4.66890630588267
0.848,2.04575806647264
0.849,1.00193118799154
0.85,0.114090802407555
0.851,-0.774804727402271
0.852,-1.08094049028482
0.853,-1.24874734179451
0.854,-1.2237271669769
0.855,-1.17351711230003
0.856,-1.21778890494627
0.857,-1.24569595048306
0.858,-1.06417335422009
0.859,-0.685331688306904
0.86,-0.320323350652023
0.861,1.21631584686361
0.862,2.48243363194022
0.863,3.79267240580934
0.864,4.14833649019399
0.865,4.49054442994652
0.866,3.66262602521174
0.867,3.42421237905919
0.868,1.99969378958131
0.869,0.997117779768949
0.87,0.235876484502655
0.871,-0.76160484636759
0.872,-1.20468051478661
0.873,-1.18843408139401
0.874,-1.24621040956532
0.875,-1.23426304749596
0.876,-1.19563951424893
0.877,-1.24650226183889
0.878,-1.21580889315552
0.879,-0.691689220736385
0.88,0.306177648717369
0.881,1.1683111280806
0.882,2.43997983601915
0.883,3.15582883007157
0.884,3.97646303262638
0.885,4.38005605764533
0.886,3.82552555669576
0.887,3.05039142160773
0.888,2.77872094532211
0.889,1.55532879228809
0.89,-0.255015763330637
0.891,-0.564694108625916
0.892,-1.14660391815126
0.893,-1.23465670792343
0.894,-1.17649349014313
0.895,-1.22062582661841
0.896,-1.21928971504823
0.897,-1.22758680829598
0.898,-1.16851971084402
0.899,-0.806987464595511
0.9,-0.118190077063308
0.901,1.41002581897565
0.902,2.27941507959899
0.903,3.23823849653494
0.904,4.27687459030137
0.905,4.94164488827166
0.906,4.6088935109982
0.907,4.33134566571059
0.908,2.67349742425585
0.909,0.665827030580948
0.91,0.0560175765440376
0.911,-0.73080927720625
0.912,-1.15681452878227
0.913,-1.24731757296893
0.914,-1.2408781745663
0.915,-1.20513167822488
0.916,-1.23409209599434
0.917,-1.2421442728977
0.918,-1.14205450758906
0.919,-0.822035029874874
0.92,0.37888168047698
0.921,1.16331025369349
0.922,2.58972690313302
0.923,3.68476149213831
0.924,4.27471178308269
0.925,4.67942887623654
0.926,4.41377944450357
0.927,3.3649975856753
0.928,3.04460746521005
0.929,1.29305419689929
0.93,-0.0176255294954344
0.931,-0.893356438166128
0.932,-1.17918041989173
0.933,-1.24803748475759
0.934,-1.24975181320056
0.935,-1.16822500852567
0.936,-1.1488962783658
0.937,-1.24693323249784
0.938,-1.20270078648193
0.939,-0.930937697730875
0.94,0.407063466260556
0.941,1.06013270062262
0.942,2.85860839246595
0.943,3.34942126040055
0.944,4.04408573691768
0.945,4.68977127030793
0.946,3.87556155958679
0.947,4.25024996887226
0.948,2.31903200053075
0.949,0.830042948594487
0.95,-0.202875641905139
0.951,-0.678432696648915
0.952,-1.10235999528344
0.953,-1.24927128942622
0.954,-1.24998979833852
0.955,-1.06804341763689
0.956,-1.24998988618847
0.957,-1.24857230914672
0.958,-1.03492457376147
0.959,-0.680670834367591
0.96,-0.151195349901446
0.961,1.0087146185587
0.962,2.46324986162076
0.963,3.78577909073316
0.964,5.09992729007812
0.965,5.3506543296835
0.966,4.33246694196632
0.967,3.33434467424453
0.968,1.54285836533329
0.969,1.73931700970341
0.97,0.0489076366797182
0.971,-0.74734061596742
0.972,-1.10008854838093
0.973,-1.23497336692604
0.974,-1.22626108667846
0.975,-1.11993204331231
0.976,-1.15717881695435
0.977,-1.238791377432
0.978,-1.09338319367106
0.979,-0.790530283312982
0.98,-0.0206791924164892
0.981,1.17535298987065
0.982,2.252840300913
0.983,2.69869635381262
0.984,4.19602516205249
0.985,4.89393658261812
0.986,3.80875581181492
0.987,3.4096107160722
0.988,2.07492463382071
0.989,1.64492305920376
0.99,-0.260566547215099
0.991,-0.966172042420209
0.992,-1.03131407562004
0.993,-1.23201112952547
0.994,-1.24259056362686
0.995,-1.18900785339357
0.996,-1.1565121689223
0.997,-1.24980939464856
0.998,-1.17480098562156
0.999,-0.839276249443639
1,-0.243928551151734
1.001,1.14547528060289
1.002,2.29401057370405
1.003,3.42752317584972
1.004,3.82641945433673
1.005,4.21736394699628
1.006,4.48267337692091
1.007,3.96971715343945
1.008,2.31238807578429
1.009,0.908094283674277
1.01,0.362243246241586
1.011,-0.677322477950939
1.012,-1.18866380634958
1.013,-1.24371953738156
1.014,-1.20570144050607
1.015,-1.1987587148657
1.016,-1.22223901967209
1.017,-1.24992790107888
1.018,-1.03964844919881
1.019,-0.72089441144058
1.02,0.10537536192756
1.021,0.721448279090108
1.022,2.36607761156284
1.023,3.31813006302269
1.024,5.0196059291043
1.025,4.86083749256217
1.026,4.1974909534726
1.027,3.15633774286692
1.028,2.97596465067674
1.029,0.492123326643781
1.03,-0.00756362323606207
1.031,-0.892578224192275
1.032,-0.989722497691015
1.033,-1.2256556713269
1.034,-1.24642062977218
1.035,-1.12085060244292
1.036,-1.19046970764767
1.037,-1.24856376382943
1.038,-1.1335328034364
1.039,-0.803255574427625
1.04,0.0564030070683326
1.041,0.993645335033327
1.042,2.29353556921772
1.043,2.90021122416171
1.044,4.35068018143448
1.045,4.61285290903189
1.046,3.93278146987898
1.047,4.08665669996469
1.048,2.51513640713424
1.049,1.63825806943369
1.05,0.229456621779796
1.051,-0.831098015820171
1.052,-1.14383847477938
1.053,-1.24488656122825
1.054,-1.21907031908078
1.055,-1.24739414243935
1.056,-1.24199548648519
1.057,-1.24811608347267
1.058,-1.02278686810737
1.059,-0.722653601206237
1.06,-0.171750597114289
1.061,1.22261996569745
1.062,2.74610227274025
1.063,3.32161467533065
1.064,4.74939860322129
1.065,4.57213231837511
1.066,4.12207346348892
1.067,3.82224221112617
1.068,2.64123301665997
1.069,0.6993845520031
1.07,-0.35329448143842
1.071,-0.593440667387768
1.072,-1.18570831835574
1.073,-1.24837368066917
1.074,-1.23966189960329
1.075,-1.24885592339099
1.076,-1.13585986372878
1.077,-1.24970350227034
1.078,-1.14144252401407
1.079,-0.939943774694645
1.08,0.562061178602987
1.081,1.15772839042378
1.082,2.21142383660946
1.083,2.96825402541019
1.084,4.32641849328074
1.085,4.55709612133057
1.086,5.88371744134046
1.087,4.11220961948349
1.088,2.36437079440858
1.089,1.25828787718728
1.09,0.088983788400395
1.091,-0.92073290876889
1.092,-1.16640842172654
1.093,-1.24956635068867
1.094,-1.24217204425048
1.095,-1.23378020045177
1.096,-1.23720560538776
1.097,-1.2441412482358
1.098,-1.11884275610191
1.099,-0.797617332133843
1.1,0.0570445792202327
1.101,0.939154814242555
1.102,2.06962172212113
1.103,3.3068862461098
1.104,4.61315646563963
1.105,4.67385430229028
1.106,5.15325437521228
1.107,3.76257973973996
1.108,2.6585478071624
1.109,1.55939287435293
1.11,0.13797144347899
1.111,-0.905547418347646
1.112,-1.19219729586583
1.113,-1.24956409615027
1.114,-1.24999582041623
1.115,-1.23839911868851
1.116,-1.20762020181424
1.117,-1.24700721081002
1.118,-1.10546072972738
1.119,-0.729657244426065
1.12,-0.09461783556401
1.121,1.36390542027183
1.122,2.30611416058207
1.123,3.58079049969707
1.124,4.31399325565061
1.125,4.62728958314284
1.126,5.27811828235066
1.127,3.36860830107447
1.128,2.51268846894779
1.129,1.71760225364339
1.13,-0.174884940324345
1.131,-0.719945194791694
1.132,-1.21575387931155
1.133,-1.24883679186208
1.134,-1.24309014091458
1.135,-1.19978079570114
1.136,-1.21892069941806
1.137,-1.23867533161604
1.138,-1.09854018325055
1.139,-0.772279154699326
1.14,-0.0680325572720967
1.141,1.08784155059173
1.142,2.85915221848906
1.143,3.84176572890608
1.144,4.71320537544887
1.145,4.31079302810174
1.146,5.20677597815908
1.147,3.52884196930117
1.148,2.54306110894393
1.149,1.28365862727475
1.15,0.0953328811750662
1.151,-0.800027179953024
1.152,-1.1150141584703
1.153,-1.24998206952388
1.154,-1.22660590690824
1.155,-1.18339655554388
1.156,-1.23982014374822
1.157,-1.21902664845068
1.158,-1.2060846968769
1.159,-0.495145316753697
1.16,-0.321367359631567
1.161,0.832035747192231
1.162,2.121707995092
1.163,3.48304095114391
1.164,3.97996785766108
1.165,4.09452990488754
1.166,5.03414198756423
1.167,3.19030668031068
1.168,2.88416325832787
1.169,1.44635623596795
1.17,-0.0821423510696144
1.171,-0.628392400602833
1.172,-1.11678343497461
1.173,-1.24745698626384
1.174,-1.24934540397338
1.175,-1.23629634476546
1.176,-1.23861526135276
1.177,-1.24594518037727
1.178,-1.14879814461742
1.179,-0.72169352994026
1.18,0.110830486145685
1.181,0.88059266360197
1.182,2.40534391090663
1.183,3.69615314829928
1.184,4.96830413616959
1.185,4.29830266669892
1.186,4.17036970617619
1.187,3.70025130043899
1.188,2.25916323887431
1.189,0.953836368520351
1.19,0.0524359544449175
1.191,-0.657809450458456
1.192,-1.13783211995451
1.193,-1.24871920049523
1.194,-1.22579361640196
1.195,-1.24218328131669
1.196,-1.24994864350897
1.197,-1.24397035234918
1.198,-1.15950494253352
1.199,-0.605815262542112
1.2,-0.136155190323569
1.201,0.795359252209608
1.202,2.38386940963476
1.203,3.8892740190858
1.204,4.10700650819392
1.205,4.5364049604603
1.206,3.89547200210003
1.207,3.75548836749274
1.208,2.02447595559932
1.209,0.936850716954331
1.21,0.0298654217440738
1.211,-0.954041658095286
1.212,-1.06549312953935
1.213,-1.24676051266261
1.214,-1.13981510723054
1.215,-1.2382883532807
1.216,-1.20968759483172
1.217,-1.24999822845392
1.218,-1.14853721167885
1.219,-0.919778508847891
1.22,-0.0178309399028227
1.221,1.16387476577173
1.222,2.60492506765682
1.223,4.35770796671452
1.224,4.56867158063988
1.225,4.89148651427802
1.226,4.34988572973325
1.227,3.99153973156749
1.228,2.30834400785953
1.229,1.16583336467384
1.23,-0.102787693328697
1.231,-0.858756888201152
1.232,-1.17498448767763
1.233,-1.2442435744028
1.234,-1.22049980115328
1.235,-1.21660152914276
1.236,-1.23230908623455
1.237,-1.22944966606489
1.238,-1.12649636433314
1.239,-0.921928843528609
1.24,-0.166082588355026
1.241,1.0371387580478
1.242,3.04182967717961
1.243,3.83992806037505
1.244,3.84576558915216
1.245,5.20156675951447
1.246,4.96837314434959
1.247,3.1943704439691
1.248,2.80733804315655
1.249,1.38032693040067
1.25,0.211507609003634
1.251,-0.692025556191724
1.252,-1.12528747842307
1.253,-1.23887388455454
1.254,-1.23008141611313
1.255,-1.22208679806312
1.256,-1.16415326841532
1.257,-1.24566613780257
1.258,-1.19356415131105
1.259,-0.771694507082964
1.26,0.0662990425873844
1.261,1.1018240660308
1.262,2.27191578319077
1.263,3.47180715625895
1.264,4.64641188008967
1.265,5.18020857071629
1.266,5.01809826103897
1.267,3.37829660255428
1.268,2.54267844136323
1.269,1.19030069469105
1.27,0.0668320206878312
1.271,-0.553504070587926
1.272,-1.09966577893511
1.273,-1.24999908505346
1.274,-1.24418528038747
1.275,-1.18079905276472
1.276,-1.24502922272531
1.277,-1.24199720593666
1.278,-1.04030101149362
1.279,-0.63025403519579
1.28,0.0124084941750661
1.281,1.22954951224949
1.282,2.76907259426979
1.283,3.58915259962768
1.284,4.17718972319833
1.285,5.07952259101071
1.286,4.61927249339152
1.287,3.84420815238129
1.288,2.53116663368394
1.289,0.900264591565559
1.29,-0.0117798168889942
1.291,-0.908411367445404
1.292,-1.11307336959237
1.293,-1.24509225611542
1.294,-1.23723327550542
1.295,-1.23543688136432
1.296,-1.23808417651049
1.297,-1.24807017916306
1.298,-1.17732060980706
1.299,-0.764903225957583
1.3,-0.329568954255935
1.301,0.936174684703197
1.302,2.32061863609141
1.303,4.48568953755551
1.304,4.34327818811537
1.305,5.35068773321571
1.306,4.34594668745494
1.307,3.3538625696855
1.308,2.31542784044951
1.309,0.928917882796512
1.31,0.181426852572232
1.311,-0.731804956224816
1.312,-1.13999597899678
1.313,-1.15688322714279
1.314,-1.23733547026615
1.315,-1.249248981684
1.316,-1.23352097143812
1.317,-1.24445441300762
1.318,-1.11084164027242
1.319,-0.706353676174831
1.32,-0.227785298544359
1.321,0.781806324669051
1.322,2.63908904400372
1.323,4.19184044931305
1.324,4.03498601098872
1.325,4.55957927614904
1.326,3.70287437304649
1.327,3.48366349948211
1.328,1.84488927615218
1.329,1.12785459137412
1.33,-0.246648581265156
1.331,-0.8374052386191
1.332,-1.18856917162084
1.333,-1.24999159361403
1.334,-1.15890396452542
1.335,-1.19857697371204
1.336,-1.21046178632833
1.337,-1.24999755660504
1.338,-1.13028125826991
1.339,-0.725337367227706
1.34,0.0275162054019299
1.341,1.21819287746589
1.342,2.432901157095
1.343,3.8482551874689
1.344,4.10533983140563
1.345,5.29832565619996
1.346,4.22753984236514
1.347,4.41451361539902
1.348,2.5516003742736
1.349,1.45093213638967
1.35,-0.0828176702732999
1.351,-0.666117690672501
1.352,-1.1943565993877
1.353,-1.24526975945909
1.354,-1.18759112124195
1.355,-1.19909400301099
1.356,-1.20336106963219
1.357,-1.24735339860271
1.358,-1.17032316963008
1.359,-0.823991596445129
1.36,0.461724238729423
1.361,0.945324417400002
1.362,2.50848951524689
1.363,3.44538802429941
1.364,4.71573541403746
1.365,5.88257789160733
1.366,4.30494182324336
1.367,4.334938375744
1.368,2.53269763196095
1.369,0.801728316499116
1.37,-0.443629096092177
1.371,-0.877164523652005
1.372,-1.00811957198242
1.373,-1.24998879786302
1.374,-1.23878150870811
1.375,-1.21867975816521
1.376,-1.22153721581141
1.377,-1.23766994645443
1.378,-1.08649541157671
1.379,-0.964068441063465
1.38,-0.197508176055879
1.381,1.04599785198208
1.382,1.95381499695401
1.383,3.62229465630474
1.384,4.6322771856628
1.385,5.52130344031254
1.386,5.12057301244997
1.387,3.28332004955992
1.388,2.26030010266826
1.389,1.15244406372502
1.39,0.114658222486626
1.391,-0.641511261157932
1.392,-1.18022379959061
1.393,-1.22728092867211
1.394,-1.20857627874878
1.395,-1.20272732684962
1.396,-1.22805574392682
1.397,-1.22118422142527
1.398,-1.12775899755195
1.399,-0.529825830119588
1.4,0.386687851944131
1.401,1.27559708600899
1.402,2.35922578225009
1.403,3.80683359604464
1.404,3.74911383500651
1.405,4.49791117084608
1.406,4.30683444272354
1.407,2.78973934842577
1.408,2.17187207247737
1.409,0.832097506602735
1.41,0.182036118092626
1.411,-0.838902229699649
1.412,-1.1054869371177
1.413,-1.24250695525901
1.414,-1.19025353775031
1.415,-1.22111869273552
1.416,-1.23106810440862
1.417,-1.24898612294209
1.418,-1.05612390963708
1.419,-0.987710916449473
1.42,0.334626947084348
1.421,0.993334446644611
1.422,2.72806788934574
1.423,3.24084517730023
1.424,4.94073602473048
1.425,5.16851624148108
1.426,4.60932669521327
1.427,3.72025957767784
1.428,2.74242252316478
1.429,1.47512035426785
1.43,0.10526092165595
1.431,-0.69836707786883
1.432,-1.14422743750705
1.433,-1.24311820420389
1.434,-1.2394691810927
1.435,-1.1506087065447
1.436,-1.24020671094003
1.437,-1.23024825618198
1.438,-1.0631590732153
1.439,-0.59649759538334
1.44,0.051410320847886
1.441,1.2205264832139
1.442,1.79134894375164
1.443,3.09614664697292
1.444,4.21981900804676
1.445,4.49733115268279
1.446,4.46112976986016
1.447,3.30174864428608
1.448,2.07686040481214
1.449,0.718637636368731
1.45,-0.255144294426827
1.451,-0.796106636534881
1.452,-1.10641842141592
1.453,-1.22960359479922
1.454,-1.14248021879066
1.455,-1.19906518324341
1.456,-1.18441290352757
1.457,-1.24611516342379
1.458,-1.06833656066857
1.459,-0.82870796655892
1.46,0.15692370418951
1.461,1.13183427773912
1.462,2.63037241946362
1.463,3.85491633798086
1.464,4.45694558121055
1.465,4.25978041966376
1.466,4.67087573730986
1.467,3.78875522615746
1.468,2.80020030277666
1.469,0.667317047777535
1.47,0.24875699610024
1.471,-0.839753918307993
1.472,-1.15370754850463
1.473,-1.24994572066913
1.474,-1.21393815676591
1.475,-1.17977227068356
1.476,-1.22210388797221
1.477,-1.22237126792176
1.478,-1.12236220346702
1.479,-0.662364137442671
1.48,-0.124473094770104
1.481,1.21482905302219
1.482,2.42734169685017
1.483,3.86178264575278
1.484,4.91441492858902
1.485,5.13361024873111
1.486,4.12611774061047
1.487,3.13758730001885
1.488,2.20834391523686
1.489,1.32049166438446
1.49,0.159120580132994
1.491,-0.961130102504592
1.492,-1.20272006424569
1.493,-1.24942458833726
1.494,-1.24024578706128
1.495,-1.17272829246458
1.496,-1.23915737277987
1.497,-1.24770655078722
1.498,-1.01582827231968
1.499,-0.712202526144708
1.5,-0.109710399901784
1.501,1.46233309170508
1.502,2.51954537448745
1.503,3.79412748711888
1.504,4.88839923358975
1.505,5.73476238195078
1.506,3.84541467823219
1.507,3.37943137518154
1.508,3.19764132714149
1.509,0.658104567516829
1.51,-0.112814483073203
1.511,-0.740084602960353
1.512,-1.11745707988886
1.513,-1.24958569313245
1.514,-1.21790441436684
1.515,-1.23065696140404
1.516,-1.24933029023076
1.517,-1.24278462112622
1.518,-1.14043508217246
1.519,-0.642257463210309
1.52,0.220300647547794
1.521,0.883562788930361
1.522,2.76081942972757
1.523,3.71137298736511
1.524,4.38568938389435
1.525,4.19564395844048
1.526,5.09446211604904
1.527,3.76562293056726
1.528,2.67067215108239
1.529,1.01606951361816
1.53,-0.209523985913699
1.531,-0.531852072478816
1.532,-1.10748818253212
1.533,-1.24866039639037
1.534,-1.24088730351002
1.535,-1.1570415876847
1.536,-1.24025659709438
1.537,-1.24931347517978
1.538,-1.10889426873368
1.539,-0.961006572514386
1.54,-0.0459831701106709
1.541,1.23888075709097
1.542,2.68980366668894
1.543,3.93075171686684
1.544,4.64664334349714
1.545,4.81097288304093
1.546,4.68415419780555
1.547,3.61108338425698
1.548,2.41442610981405
1.549,0.757417544059212
1.55,-0.234364559547837
1.551,-0.581708601653742
1.552,-1.04581569065253
1.553,-1.24887451613886
1.554,-1.24008786800389
1.555,-1.23419815511231
1.556,-1.24951555237435
1.557,-1.24904585643203
1.558,-1.1646384409935
1.559,-0.578610553927027
1.56,-0.0452715270324328
1.561,1.23122572709245
1.562,1.98827491502843
1.563,4.14581483919387
1.564,3.8471877624169
1.565,5.39774905183221
1.566,4.42909103738841
1.567,3.35452151652408
1.568,2.98929859250597
1.569,1.12299599470641
1.57,-0.242143253191442
1.571,-0.874978729674916
1.572,-1.08232089706682
1.573,-1.24842492405432
1.574,-1.23682667180682
1.575,-1.20646252257273
1.576,-1.21175425586287
1.577,-1.2088885461158
1.578,-1.22608693239611
1.579,-0.884522971515584
1.58,0.138306000368693
1.581,1.6669618605257
1.582,3.07761451090985
1.583,4.03773764392734
1.584,4.18027655767734
1.585,3.97569113913878
1.586,5.18318156563429
1.587,4.07229466524276
1.588,2.60941360932798
1.589,1.00561062727107
1.59,-0.0959580472035274
1.591,-0.88311793964739
1.592,-1.23509539465929
1.593,-1.24737946770129
1.594,-1.24169526895168
1.595,-1.20411962076366
1.596,-1.1931693234825
1.597,-1.19603784629491
1.598,-0.941631630596579
1.599,-0.853594762111929
1.6,-0.0570103169663029
1.601,1.37729605870217
1.602,2.23828835585954
1.603,3.06653870594916
1.604,4.48592642015131
1.605,5.47824902490927
1.606,4.31422354251218
1.607,3.80721598786466
1.608,2.09885813703558
1.609,1.10394055275774
1.61,0.0920747450202348
1.611,-0.918951213425886
1.612,-1.15031926789602
1.613,-1.23277499895218
1.614,-1.22338005847531
1.615,-1.1815772083335
1.616,-1.23077859444641
1.617,-1.24856505433459
1.618,-1.15690780253811
1.619,-0.680277106400936
1.62,0.254569516850925
1.621,1.32688234791128
1.622,3.12369176168597
1.623,3.89624627509169
1.624,4.08768887709512
1.625,4.65604924753755
1.626,3.93469799925765
1.627,3.8551993674391
1.628,2.31345887213022
1.629,1.48846740526442
1.63,0.141522561598034
1.631,-0.546425468255673
1.632,-1.11743650402656
1.633,-1.23787929013224
1.634,-1.16871369884001
1.635,-1.22779976752813
1.636,-1.14265908346849
1.637,-1.24949456262297
1.638,-1.15775566702765
1.639,-0.781089528700435
1.64,0.00158961810467485
1.641,1.34175577024905
1.642,2.14647331974832
1.643,3.61085381002709
1.644,4.40579217186575
1.645,5.09139551411404
1.646,5.12366163947652
1.647,3.99720168990145
1.648,2.55340258560799
1.649,1.5607665084096
1.65,-0.0932488205875275
1.651,-0.588060128269746
1.652,-1.12931296099316
1.653,-1.24856802012211
1.654,-1.22026671602134
1.655,-1.23017887640656
1.656,-1.23414475873704
1.657,-1.24875012467496
1.658,-1.21931441517159
1.659,-0.815885012122748
1.66,-0.11864306611357
1.661,0.958216754879137
1.662,2.37030234149492
1.663,3.53846812977872
1.664,4.20349621189486
1.665,4.49545820214898
1.666,4.98520967010721
1.667,3.85035911998325
1.668,2.78406863192917
1.669,0.908108796354014
1.67,-0.0807919308289392
1.671,-0.854858568367809
1.672,-1.03826757881465
1.673,-1.24939094350937
1.674,-1.20798723820333
1.675,-1.24274242712372
1.676,-1.18660553621121
1.677,-1.24978483951037
1.678,-1.09824632849435
1.679,-0.72770275380065
1.68,-0.435205702687319
1.681,0.914686942397169
1.682,2.65823273383445
1.683,3.45589651535379
1.684,4.51126293843878
1.685,4.65507999114683
1.686,4.28266709635813
1.687,3.62672067268293
1.688,2.12698699782027
1.689,1.22569259800094
1.69,0.199979405857691
1.691,-0.863969825705671
1.692,-1.12965181472168
1.693,-1.23735251277318
1.694,-1.24999998325723
1.695,-1.18382750792988
1.696,-1.23606790998231
1.697,-1.22872320183489
1.698,-1.19303493987045
1.699,-0.719130106091566
1.7,-0.116204232571827
1.701,0.91158732562968
1.702,2.34854059194439
1.703,4.46498948895895
1.704,4.9942771714072
1.705,4.64512683949006
1.706,4.46594395896637
1.707,4.42934559826665
1.708,2.14446742885017
1.709,1.60453709590792
1.71,-0.0588832916144945
1.711,-0.823384507279705
1.712,-1.07798270715271
1.713,-1.24825115527986
1.714,-1.24678600174941
1.715,-1.17519730133846
1.716,-1.22478807095458
1.717,-1.24992385456576
1.718,-1.21087103108578
1.719,-0.74583287525289
1.72,-0.163029074159866
1.721,0.492473270339329
1.722,2.72136668116
1.723,3.82055112563067
1.724,4.51657067614156
1.725,4.28585404506394
1.726,4.60710591706321
1.727,3.99355303667031
1.728,2.49547026726007
1.729,0.99142662647773
1.73,-0.185069093184652
1.731,-0.630405072533659
1.732,-1.18998352518906
1.733,-1.23833759793302
1.734,-1.24777391424568
1.735,-1.17089774770203
1.736,-1.2370311876837
1.737,-1.24962932035258
1.738,-1.13293793967898
1.739,-0.766805798376872
1.74,-0.121873865751278
1.741,1.27906039819256
1.742,2.60249547039297
1.743,3.58418159447857
1.744,5.45457608536308
1.745,4.60226535988478
1.746,4.38735808950398
1.747,3.02286265620067
1.748,2.55158659804356
1.749,0.54112105602897
1.75,0.0564830958463339
1.751,-0.863395026630369
1.752,-1.2231840638229
1.753,-1.23032269480179
1.754,-1.19672037251623
1.755,-1.23496749011504
1.756,-1.24127950567381
1.757,-1.24785205473788
1.758,-1.0806928600192
1.759,-0.872608524904213
1.76,0.124224616556317
1.761,1.12003561856778
1.762,2.22386052592979
1.763,3.84137049998143
1.764,5.2838850912373
1.765,4.17305717165574
1.766,4.50359174816906
1.767,3.81215510159889
1.768,2.76660270539421
1.769,0.658995434690112
1.77,-0.0567539330883266
1.771,-0.668585896879357
1.772,-1.03182671703209
1.773,-1.21729793820537
1.774,-1.2408150977101
1.775,-1.21994170875274
1.776,-1.18525219653573
1.777,-1.24499608174723
1.778,-1.12872798438592
1.779,-0.704779161048521
1.78,-0.0555711876251238
1.781,0.695910577798696
1.782,2.58493892913046
1.783,3.79896122449501
1.784,4.33351842042558
1.785,3.85838083447002
1.786,4.42334727844971
1.787,3.6728127028391
1.788,2.68794040737302
1.789,1.05466688330023
1.79,-0.127957124383974
1.791,-0.825185268697289
1.792,-1.10962374156263
1.793,-1.24749885540787
1.794,-1.21187564336714
1.795,-1.2054360744795
1.796,-1.19472438108726
1.797,-1.22924798882391
1.798,-1.20358563123791
1.799,-0.591993071255773
1.8,0.0680976629875414
1.801,1.16356779129511
1.802,2.63164613476758
1.803,3.58061053203521
1.804,4.62998034304285
1.805,4.85835024953983
1.806,4.56508146878245
1.807,3.25000237728345
1.808,2.6313492822161
1.809,0.795781607068901
1.81,0.203031670090371
1.811,-0.930413592119863
1.812,-1.04921231872951
1.813,-1.24805214860406
1.814,-1.24923852214437
1.815,-1.2039720137385
1.816,-1.23338424397136
1.817,-1.24874350725489
1.818,-1.1744599591025
1.819,-0.793716433057099
1.82,0.127069768533319
1.821,0.893907914403475
1.822,2.01054827772744
1.823,3.7140002298754
1.824,5.18589931560178
1.825,4.59158065109203
1.826,4.59741170962337
1.827,3.25165453639654
1.828,2.29517629125511
1.829,0.884795083706612
1.83,-0.0791980168922491
1.831,-0.703837676728414
1.832,-1.19401941750119
1.833,-1.24995989798253
1.834,-1.22947400895118
1.835,-1.19978896089852
1.836,-1.14481507169273
1.837,-1.24996902513176
1.838,-1.12908458065302
1.839,-0.775766484030739
1.84,0.257607291085718
1.841,0.781486029829073
1.842,2.35073994331976
1.843,3.96292005319318
1.844,4.86914850857722
1.845,5.64473326018261
1.846,4.22584410278498
1.847,3.13061182225916
1.848,2.12674776794046
1.849,1.18109678285788
1.85,0.0142917633060177
1.851,-0.760011439010548
1.852,-1.09492522784878
1.853,-1.24514975620501
1.854,-1.18865891102387
1.855,-1.20870706647007
1.856,-1.22926100655073
1.857,-1.23397427546329
1.858,-1.05857971399997
1.859,-0.913790584837592
1.86,-0.0408934018018034
1.861,1.25079446776231
1.862,2.41167297222244
1.863,3.93747161598343
1.864,3.81149783210998
1.865,4.99381190817302
1.866,4.68543674455671
1.867,4.17540510482543
1.868,3.14187691564775
1.869,1.46607702704368
1.87,-0.0895177122568207
1.871,-0.759932840017912
1.872,-1.14969830889824
1.873,-1.24662427385639
1.874,-1.24632101747839
1.875,-1.1958838346389
1.876,-1.21905621554212
1.877,-1.24674454608308
1.878,-1.09324230576575
1.879,-0.660739731017984
1.88,-0.129709950290697
1.881,1.33448291057749
1.882,1.996470098849
1.883,3.27663660715291
1.884,4.33391808665928
1.885,4.61866105082936
1.886,4.33746873094772
1.887,3.97260085729172
1.888,2.78632628755367
1.889,1.35783148051627
1.89,0.241396668449503
1.891,-0.754016666481657
1.892,-1.14239255811872
1.893,-1.2306165582045
1.894,-1.24475797157891
1.895,-1.2130618411411
1.896,-1.20738143710817
1.897,-1.24712166330408
1.898,-1.10601120318782
1.899,-0.635013919580425
1.9,0.115585438896096
1.901,1.15433271476965
1.902,2.21896734640592
1.903,3.90605397606909
1.904,4.79230910444673
1.905,5.46888703879148
1.906,4.46955852680114
1.907,4.00087617326572
1.908,2.5525149061276
1.909,0.821436410990668
1.91,0.188162069038709
1.911,-0.772645190562016
1.912,-1.17260737553575
1.913,-1.24869515871327
1.914,-1.20904440627957
1.915,-1.19450665310199
1.916,-1.24882967315034
1.917,-1.2337155361602
1.918,-1.02804675187754
1.919,-0.657901241851157
1.92,-0.197267135236917
1.921,1.30727835579005
1.922,1.78834513764102
1.923,3.5428818878262
1.924,4.11346413113714
1.925,4.41119993302025
1.926,4.57252098071378
1.927,3.21757443473517
1.928,2.11507793554912
1.929,1.01458004260239
1.93,0.0393444250178828
1.931,-0.871228290890121
1.932,-1.17943708084934
1.933,-1.24998731582666
1.934,-1.19170764198833
1.935,-1.18711586253767
1.936,-1.20576612728607
1.937,-1.23373651122212
1.938,-1.23702106158777
1.939,-0.733280179358461
1.94,-0.0821465335467988
1.941,1.26022825723926
1.942,2.75487243409585
1.943,3.23774197123649
1.944,4.17023897623256
1.945,4.17523977471005
1.946,4.20568727312465
1.947,3.57587411132005
1.948,2.38333253532742
1.949,1.16654759624069
1.95,0.0888469121328141
1.951,-0.959043825249069
1.952,-1.12302714396284
1.953,-1.24812089358805
1.954,-1.23399822177167
1.955,-1.15627759040801
1.956,-1.22623419897862
1.957,-1.24518101363758
1.958,-1.24212658561129
1.959,-0.824221998852589
1.96,0.22426338472467
1.961,0.903371143974354
1.962,1.82143750077988
1.963,3.99272720709883
1.964,4.0496600757678
1.965,5.19152375590359
1.966,4.10886482281723
1.967,3.39832055003266
1.968,2.64609722191056
1.969,0.60076035481748
1.97,-0.170526456692698
1.971,-0.871576193667423
1.972,-1.19097451571259
1.973,-1.23088744865866
1.974,-1.17586239873521
1.975,-1.24186629733811
1.976,-1.23899879426786
1.977,-1.24510247167331
1.978,-1.14390771199961
1.979,-0.737700776598411
1.98,-0.08258865495987
1.981,1.25532473740679
1.982,2.38487541788786
1.983,3.31193276062657
1.984,3.91759345702652
1.985,4.55274902565281
1.986,4.52228535543309
1.987,4.1118036588545
1.988,2.52715903346971
1.989,1.05094069739475
1.99,-0.20418379264796
1.991,-0.93961485759527
1.992,-1.04131882137325
1.993,-1.2048240384758
1.994,-1.24411048697013
1.995,-1.09338553486211
1.996,-1.24999280012158
1.997,-1.24968668162112
1.998,-1.16577707558801
1.999,-0.709983293805123
2,0.0157670144879122
2.001,0.379885932431942
2.002,2.40754759893936
2.003,3.86978283501678
2.004,4.73802732764415
2.005,4.69976247503302
2.006,4.00040285464587
2.007,3.66248456206571
2.008,1.77440995192667
2.009,0.859657193763546
2.01,0.308850505345195
2.011,-0.890539177068844
2.012,-1.20299752610573
2.013,-1.23811631791922
2.014,-1.23960463454093
2.015,-1.22958339224032
2.016,-1.23285881943213
2.017,-1.24909817044349
2.018,-1.13065136187263
2.019,-0.98172185939687
2.02,-0.0512542878353673
2.021,0.720566710649493
2.022,2.28112133141329
2.023,4.29640694780496
2.024,4.71879188772692
2.025,4.83314624933743
2.026,3.99825021632888
2.027,3.43338364294527
2.028,2.84431190923906
2.029,1.29804356891122
2.03,0.0370938808408158
2.031,-0.765738767494314
2.032,-1.08391035423411
2.033,-1.24951200672927
2.034,-1.23529046129417
2.035,-1.2166627838388
2.036,-1.24988560412849
2.037,-1.24993879962348
2.038,-1.06460539908319
2.039,-0.686395939257906
2.04,0.0563541585228148
2.041,1.21160983319616
2.042,2.17232412524171
2.043,4.0839257343725
2.044,4.53084567733381
2.045,4.78995195699347
2.046,4.25262099686314
2.047,3.65769657386101
2.048,2.24250683878139
2.049,1.54117242479109
2.05,-0.133452561598495
2.051,-0.760708866181999
2.052,-1.05022351768773
2.053,-1.22739895484631
2.054,-1.21316603488003
2.055,-1.13720446338442
2.056,-1.23990572752408
2.057,-1.24998415714005
2.058,-1.14691686902757
2.059,-0.68332456973861
2.06,0.348970049227269
2.061,0.758582901468222
2.062,2.50807016472745
2.063,3.73681843274645
2.064,4.94313431311601
2.065,4.8584401755498
2.066,4.68419741816484
2.067,2.99233120575861
2.068,2.42112601581334
2.069,1.77703847254351
2.07,0.0666790968148665
2.071,-0.472008900949498
2.072,-1.20877024651281
2.073,-1.24627073157913
2.074,-1.20036627702786
2.075,-1.2066321643651
2.076,-1.18609727667128
2.077,-1.24839146926359
2.078,-1.16158492712273
2.079,-0.612211642738201
2.08,0.140994527787858
2.081,0.572911269565707
2.082,2.11431689542061
2.083,4.37142134271596
2.084,3.97574207748821
2.085,4.40545247941571
2.086,4.54566452949016
2.087,4.04566000667224
2.088,1.9045101585373
2.089,1.02929387796035
2.09,-0.306006496427161
2.091,-0.73907012182078
2.092,-1.14370933847323
2.093,-1.19998346491552
2.094,-1.18730175351252
2.095,-1.18382854340593
2.096,-1.2074749140391
2.097,-1.23865711723171
2.098,-1.11309952952322
2.099,-0.880445787368396
2.1,-0.268221089981645
2.101,1.21749914267994
2.102,3.3026970019968
2.103,3.75812757209687
2.104,3.80210381492837
2.105,4.25623587066466
2.106,4.60410142929622
2.107,3.45487436708688
2.108,2.34966534316006
2.109,1.92335448289162
2.11,0.0868420726444781
2.111,-0.878401477028509
2.112,-1.14151584384892
2.113,-1.24496832765662
2.114,-1.23238799835922
2.115,-1.24559588763717
2.116,-1.21777932671991
2.117,-1.24543266482601
2.118,-1.13171655091845
2.119,-0.866039236850247
2.12,-0.133648563547078
2.121,1.19803211463816
2.122,2.62018503106
2.123,3.66151634513386
2.124,4.38732573433188
2.125,4.53928750278201
2.126,4.37987357646713
2.127,3.94931211003639
2.128,2.92885841480309
2.129,1.29946182927407
2.13,0.0536741069213367
2.131,-0.657021658871791
2.132,-1.11758858057
2.133,-1.24991609382822
2.134,-1.22381888406596
2.135,-1.20907813640305
2.136,-1.23463775514824
2.137,-1.22015074371812
2.138,-1.17812720355577
2.139,-0.879872825890005
2.14,-0.0606303767744981
2.141,1.22174944611527
2.142,2.50103821331401
2.143,3.66164859994374
2.144,4.85878190281896
2.145,4.90226583734306
2.146,4.51282976185637
2.147,4.36224937656824
2.148,2.70256857806752
2.149,0.767919712679217
2.15,0.109091760666062
2.151,-0.638022659845663
2.152,-1.02904260870263
2.153,-1.24807543281759
2.154,-1.23164963776942
2.155,-1.1619590423342
2.156,-1.24484062525297
2.157,-1.24256600580348
2.158,-1.17848818610636
2.159,-0.463874847466118
2.16,0.302500063925896
2.161,1.40603171153105
2.162,2.65050174253686
2.163,4.42304231281596
2.164,4.5130642328721
2.165,4.17435282986085
2.166,4.65182871190325
2.167,3.80423705867644
2.168,2.58200406596734
2.169,1.00448801088387
2.17,0.104428780564519
2.171,-0.973316270066294
2.172,-1.07842822056904
2.173,-1.23661393620492
2.174,-1.17211104183709
2.175,-1.19080433232358
2.176,-1.20831201402471
2.177,-1.24408894879168
2.178,-0.957291108630963
2.179,-0.561348172808068
2.18,-0.156435365237374
2.181,0.696582446568911
2.182,2.23937676277832
2.183,3.15001689765375
2.184,4.48028002574775
2.185,4.50009194600967
2.186,4.11321436090693
2.187,3.93529409478919
2.188,2.3140945925226
2.189,0.370858652459862
2.19,-0.0395625924647821
2.191,-0.919123256775777
2.192,-1.15059540519642
2.193,-1.24198871000936
2.194,-1.1833368876606
2.195,-1.24201493618681
2.196,-1.18672092489307
2.197,-1.24159492434454
2.198,-1.15822519963208
2.199,-0.582825030961108
2.2,-0.287695815335688
2.201,1.56377116247245
2.202,2.25475300305604
2.203,4.4049054813631
2.204,4.57740297201557
2.205,4.1498266341895
2.206,5.22947126850451
2.207,3.7863620911781
2.208,2.25512960528344
2.209,1.64338005064596
2.21,-0.272278162858583
2.211,-0.826077383255823
2.212,-1.11589970951529
2.213,-1.24934645734663
2.214,-1.19657015424304
2.215,-1.19415415180828
2.216,-1.23537138259113
2.217,-1.20646566067015
2.218,-1.0955367088433
2.219,-0.628535476239149
2.22,0.318133468664703
2.221,0.905814498749896
2.222,2.50792058908552
2.223,2.4986684829854
2.224,4.84598395002899
2.225,4.9660973162148
2.226,4.16566272009531
2.227,3.3554897580496
2.228,2.24345059734104
2.229,1.32155834056554
2.23,0.0131789752653108
2.231,-0.665192307228691
2.232,-1.21846273701002
2.233,-1.24883099029762
2.234,-1.24921443078457
2.235,-1.19805033067757
2.236,-1.24187521726417
2.237,-1.24682876228217
2.238,-1.17004863070983
2.239,-0.926375193328023
2.24,-0.0173599286132995
2.241,1.24705524194689
2.242,2.35387766197092
2.243,3.74568978765194
2.244,4.11190184529747
2.245,4.58226663650455
2.246,4.44600002947772
2.247,4.10280583165439
2.248,3.26687013175475
2.249,0.938324602259134
2.25,-0.246316864205828
2.251,-0.983113754684547
2.252,-1.1556550900288
2.253,-1.2417896111142
2.254,-1.13507012305754
2.255,-1.18015662755028
2.256,-1.21101251586392
2.257,-1.23225515232129
2.258,-1.21248834152387
2.259,-0.886866848706974
2.26,-0.164217408262292
2.261,0.79750522882637
2.262,2.49800325932646
2.263,3.58575998770503
2.264,5.52886788076866
2.265,5.26331585014601
2.266,4.29437733845366
2.267,3.0863760691919
2.268,2.84590780152237
2.269,1.40796815887381
2.27,0.08417771971738
2.271,-0.727592073031622
2.272,-1.19349122201722
2.273,-1.24959192133098
2.274,-1.24350680661594
2.275,-1.2471024566164
2.276,-1.22279115808081
2.277,-1.23760452709681
2.278,-1.18493681727889
2.279,-0.810785246893942
2.28,-0.335959485725334
2.281,1.01100961064956
2.282,3.27929647492564
2.283,3.91899390243719
2.284,5.19105133768779
2.285,4.29685052080753
2.286,4.02380464177038
2.287,3.11511451549546
2.288,2.1130550772961
2.289,1.48539600387674
2.29,0.104076203242364
2.291,-0.880186827634586
2.292,-1.10887136561545
2.293,-1.24893932438695
2.294,-1.13078920813175
2.295,-1.14735541389427
2.296,-1.19910777188902
2.297,-1.24926084562745
2.298,-1.1216930472133
2.299,-0.651270301950823
2.3,0.190854351646806
2.301,0.887542537066373
2.302,2.63929203510595
2.303,3.66187992813734
2.304,4.20529218156374
2.305,4.79751769613021
2.306,4.3987603459756
2.307,3.70187740727782
2.308,1.92013632055346
2.309,0.794407581336192
2.31,0.230163803113201
2.311,-0.790720530884776
2.312,-0.987294005222773
2.313,-1.24939471690638
2.314,-1.23545549057491
2.315,-1.18443634654243
2.316,-1.18798388560822
2.317,-1.21673723198416
2.318,-1.12064565521737
2.319,-0.423004201019819
2.32,-0.214347134144158
2.321,1.19318836723268
2.322,2.01800955621804
2.323,3.56309156214822
2.324,4.05432264339885
2.325,4.94053862328932
2.326,4.42388790312624
2.327,3.35451118341063
2.328,1.94487745622697
2.329,0.698560983001495
2.33,0.131013338226751
2.331,-0.491200108312213
2.332,-1.16217508696518
2.333,-1.23393511907044
2.334,-1.23803961292255
2.335,-1.11715114350154
2.336,-1.21561725177277
2.337,-1.242734291339
2.338,-1.12453861800372
2.339,-0.790104446276819
2.34,-0.133012124130789
2.341,0.938910623518692
2.342,2.55412098310537
2.343,3.93437252639874
2.344,5.16057574872299
2.345,4.43393963761465
2.346,3.75408520505993
2.347,3.53964897291611
2.348,1.98790046826966
2.349,0.864462844958855
2.35,-0.152422235781783
2.351,-0.786228123256799
2.352,-0.99375041565475
2.353,-1.23665517518551
2.354,-1.23178080910873
2.355,-1.24562157335128
2.356,-1.1501533972241
2.357,-1.24968016410361
2.358,-1.13276198761429
2.359,-0.396168463324623
2.36,0.195720875359555
2.361,1.1706630795342
2.362,2.44340076868094
2.363,3.58874693300827
2.364,4.77858217179583
2.365,4.8185080382385
2.366,4.85578688957217
2.367,2.87818170990678
2.368,2.08356673083466
2.369,1.23396793514314
2.37,0.0746565254089559
2.371,-0.74175170137156
2.372,-1.05331500243939
2.373,-1.24975965458774
2.374,-1.16561069984834
2.375,-1.21340767110965
2.376,-1.20013031883516
2.377,-1.2493803813467
2.378,-1.01901128328691
2.379,-0.779597377525627
2.38,0.310512270934707
2.381,0.727894195744044
2.382,3.06565543310603
2.383,4.16017339201568
2.384,4.64321177390701
2.385,4.39496747776161
2.386,4.66696752425547
2.387,3.29996865300786
2.388,2.49905194399579
2.389,0.958534315725715
2.39,-0.223328836295468
2.391,-0.500811895352394
2.392,-1.17947696754194
2.393,-1.21770362495259
2.394,-1.2452638278172
2.395,-1.16624219052752
2.396,-1.23549865639699
2.397,-1.24959775803397
2.398,-1.17562197732007
2.399,-0.861434826743479
2.4,-0.133318826887511
2.401,1.18459386699087
2.402,1.89606611815982
2.403,3.63586494338598
2.404,4.69463824155103
2.405,4.76284159647139
2.406,5.14013233911325
2.407,3.25344034579889
2.408,1.98684399488637
2.409,1.09686182135327
2.41,-0.283233103385181
2.411,-0.741404115966272
2.412,-1.21262621902526
2.413,-1.24896671189226
2.414,-1.22601748179902
2.415,-1.1876532871894
2.416,-1.16476183651595
2.417,-1.24944053575755
2.418,-1.18129267766123
2.419,-0.842441540654004
2.42,-0.0242300652881907
2.421,1.07706860105247
2.422,2.15473675479007
2.423,3.29747589951508
2.424,4.65781415230409
2.425,5.09476622653969
2.426,4.00151309512809
2.427,3.28250345272594
2.428,2.67314628025926
2.429,1.54647791988107
2.43,-0.142001879505005
2.431,-0.916376808843369
2.432,-1.16214213186997
2.433,-1.24998648066465
2.434,-1.24785990038665
2.435,-1.14705825566897
2.436,-1.21167536274115
2.437,-1.24591554439429
2.438,-1.18305977792557
2.439,-0.584650301530286
2.44,0.241176963703524
2.441,1.01811434751425
2.442,2.15141679098534
2.443,4.93805917463518
2.444,4.25553014143541
2.445,4.81512756196308
2.446,5.02326251234825
2.447,3.70854152271776
2.448,2.92940083331423
2.449,1.17849992994506
2.45,0.029418414503638
2.451,-0.824390001852605
2.452,-1.11350919289226
2.453,-1.22029939724152
2.454,-1.24251231104551
2.455,-1.13652844085036
2.456,-1.1589227449551
2.457,-1.24697127502674
2.458,-1.20755264246488
2.459,-0.763001400996243
2.46,-0.152957635504605
2.461,1.32161255019186
2.462,1.85763415248093
2.463,3.84104959152205
2.464,4.2888743008997
2.465,4.47875772968186
2.466,4.03545273706455
2.467,2.88438794093501
2.468,2.43381166974155
2.469,1.26203355635441
2.47,0.0359057640490484
2.471,-0.679124957119895
2.472,-1.07271572383429
2.473,-1.24373850017374
2.474,-1.23975006592585
2.475,-1.19232569794406
2.476,-1.21217242400643
2.477,-1.24487888608295
2.478,-1.23027618867911
2.479,-0.878051024364502
2.48,-0.0105411904955312
2.481,1.42683119577644
2.482,1.98789686864687
2.483,3.74587805360334
2.484,4.49642925199031
2.485,4.91691293933075
2.486,4.39708930191429
2.487,3.62584754536139
2.488,2.6597669266083
2.489,1.39730649749789
2.49,-0.200922296396453
2.491,-0.58552001107914
2.492,-1.18058879792673
2.493,-1.2474006500365
2.494,-1.22625644374488
2.495,-1.2212683642234
2.496,-1.13485148455878
2.497,-1.24993376634046
2.498,-1.11950536210145
2.499,-0.888135953016991
2.5,-0.115464057638258
2.501,1.09697453171022
2.502,2.46517548754885
2.503,3.44563493736267
2.504,5.51267516717618
2.505,4.98322507187665
2.506,4.18037484847267
2.507,2.79925823872535
2.508,2.53742785563311
2.509,1.17732533646299
2.51,-0.245319340275433
2.511,-0.966401280025795
2.512,-1.18181339402901
2.513,-1.2417229821124
2.514,-1.22310788508825
2.515,-1.24952040653048
2.516,-1.2078545058917
2.517,-1.24612780181673
2.518,-1.19104083381625
2.519,-0.594408927999572
2.52,-0.1109033814283
2.521,1.35770248603882
2.522,2.59133640404196
2.523,3.99712861515393
2.524,5.29507123170253
2.525,4.45121554506903
2.526,4.3773596396646
2.527,3.42863641931927
2.528,2.14528513922958
2.529,1.73876256310315
2.53,0.0818954808858647
2.531,-0.915326445479506
2.532,-1.16917974861653
2.533,-1.23015590092683
2.534,-1.16710256904902
2.535,-1.2104329067285
2.536,-1.23688038991499
2.537,-1.24886468630757
2.538,-1.19888274476736
2.539,-0.690070350465863
2.54,-0.288837449285751
2.541,1.37230502618828
2.542,2.12106148039937
2.543,3.76200754818356
2.544,4.42843371229665
2.545,4.63423808282605
2.546,4.9893814224059
2.547,3.97015721865657
2.548,2.04453956730327
2.549,1.2831907379242
2.55,-0.319773950575319
2.551,-0.776156410159918
2.552,-1.05463924322201
2.553,-1.24284503888193
2.554,-1.21767379639019
2.555,-1.17834439868316
2.556,-1.23590328530294
2.557,-1.24525006153241
2.558,-1.00579804910515
2.559,-0.563128216580323
2.56,0.289232492475842
2.561,1.26626370637484
2.562,2.73332900419849
2.563,2.71524467410473
2.564,4.52278148319341
2.565,3.88493793153593
2.566,4.99480503886142
2.567,3.92789085611702
2.568,2.53293067137915
2.569,1.20341395116597
2.57,0.181480355069362
2.571,-0.943888836167616
2.572,-1.15037068455285
2.573,-1.24976849021741
2.574,-1.22605368754121
2.575,-1.20971036217097
2.576,-1.1981071565967
2.577,-1.24366119019345
2.578,-1.13121760078831
2.579,-0.792063850619656
2.58,0.1371806951771
2.581,0.706767918118441
2.582,2.23080562018454
2.583,3.63031641270369
2.584,3.8444683143811
2.585,4.75213674869338
2.586,3.99233657047154
2.587,3.92407005734611
2.588,1.82967170367182
2.589,1.23266311878504
2.59,-0.1710917529375
2.591,-0.846697264930371
2.592,-1.10891667765352
2.593,-1.23897163045439
2.594,-1.2306764656233
2.595,-1.21582683108725
2.596,-1.23949780247776
2.597,-1.23555999016129
2.598,-1.13625349300265
2.599,-0.846849064915707
2.6,-0.119982351686897
2.601,1.21028927156168
2.602,2.46348436296938
2.603,3.36386435881137
2.604,4.53313228696556
2.605,4.73560140782463
2.606,5.0515485357989
2.607,3.66754739642371
2.608,2.06127161408824
2.609,0.86205007313531
2.61,0.0790841283388454
2.611,-0.636555206619694
2.612,-1.140602880397
2.613,-1.24997329355106
2.614,-1.19944451039099
2.615,-1.18932280885444
2.616,-1.2403948437889
2.617,-1.24722350413689
2.618,-1.17241769770475
2.619,-0.541116177564253
2.62,0.0766070158422554
2.621,1.08472819918207
2.622,2.48948161075149
2.623,4.09349077257462
2.624,4.67898896468016
2.625,4.07223915644687
2.626,5.36833524980016
2.627,3.75392070929564
2.628,2.08655667584903
2.629,0.767218902360441
2.63,-0.057717429919535
2.631,-0.847389982773819
2.632,-1.11392373713518
2.633,-1.20745044988365
2.634,-1.10320491590103
2.635,-1.23403252970524
2.636,-1.22921282606345
2.637,-1.24995332198362
2.638,-1.03147541020212
2.639,-0.692120434187111
2.64,0.445675086242336
2.641,1.22208262897361
2.642,2.44248659455422
2.643,3.47230532323335
2.644,3.82226428304852
2.645,4.60959347292414
2.646,5.09246543018167
2.647,3.2982094137236
2.648,2.36195191515155
2.649,0.79850189871211
2.65,-0.234579034096351
2.651,-0.813232799391042
2.652,-1.1059711468682
2.653,-1.21389330968643
2.654,-1.2253052979745
2.655,-1.18325627813526
2.656,-1.24674903006035
2.657,-1.2404118349934
2.658,-1.15703379203835
2.659,-0.662671913011109
2.66,0.497216118780525
2.661,1.16082195651589
2.662,2.32839655484298
2.663,3.24536721880836
2.664,4.62498372154162
2.665,5.18965219345467
2.666,4.21491613856978
2.667,3.37951530816958
2.668,2.23135586452749
2.669,0.960465416231743
2.67,0.0412228593558982
2.671,-0.706638150509169
2.672,-1.09344882072538
2.673,-1.22007953131164
2.674,-1.23331482990234
2.675,-1.1864450663592
2.676,-1.19479134845039
2.677,-1.24965955620629
2.678,-1.05455379833393
2.679,-0.886326266801851
2.68,0.0751486486006817
2.681,1.11212894995757
2.682,2.89636363415139
2.683,3.92744418743136
2.684,4.56073913304034
2.685,5.21257980403367
2.686,4.37109901374978
2.687,3.77206947237579
2.688,2.35880987378954
2.689,1.5642443556763
2.69,-0.131510833515527
2.691,-0.771736605686282
2.692,-0.949784019144147
2.693,-1.18715445783129
2.694,-1.2162968594764
2.695,-1.20187051599767
2.696,-1.15783362552855
2.697,-1.24178498729584
2.698,-1.0342478449723
2.699,-0.950190399855316
2.7,-0.0554180783496595
2.701,1.20007332935506
2.702,2.99583942034071
2.703,3.99849252744686
2.704,4.57367266948733
2.705,4.9382559287361
2.706,4.32360869742325
2.707,3.40865700889382
2.708,2.53358443722736
2.709,1.42690855794428
2.71,-0.0335672498352454
2.711,-0.756934210224761
2.712,-1.14009766749753
2.713,-1.24909201190867
2.714,-1.24676617472305
2.715,-1.19588031081203
2.716,-1.21485941170971
2.717,-1.24960504390081
2.718,-1.10019067606039
2.719,-0.826356797377482
2.72,0.10165887969713
2.721,1.19074230783011
2.722,2.61589516676473
2.723,3.16947547965976
2.724,3.93729293565835
2.725,4.89440551892949
2.726,4.26531485238276
2.727,2.66434641802889
2.728,2.78981170111113
2.729,1.08692044899199
2.73,-0.285473867626193
2.731,-0.906556386141388
2.732,-0.985884773234493
2.733,-1.2428389306639
2.734,-1.19370826270465
2.735,-1.24389533618967
2.736,-1.23828512802599
2.737,-1.24798820103743
2.738,-1.0891314738812
2.739,-0.639848630875169
2.74,0.161118652772653
2.741,1.03332240398968
2.742,2.39556984298258
2.743,3.69215753595517
2.744,4.30015707005072
2.745,5.32502133002281
2.746,4.51255534168151
2.747,3.92397990653966
2.748,2.46369427945064
2.749,1.39103751965363
2.75,0.708351278866266
2.751,-0.712135189669201
2.752,-1.13830568845553
2.753,-1.22190093848925
2.754,-1.16911833857
2.755,-1.15685534087198
2.756,-1.16793669040514
2.757,-1.24614807890248
2.758,-1.20365977925955
2.759,-0.79143665658223
2.76,0.0776558426646515
2.761,1.08431015779223
2.762,2.32537702372181
2.763,3.52120644217826
2.764,4.40614104106061
2.765,5.18709020595688
2.766,4.06457632280397
2.767,3.73916090253315
2.768,2.28823221792247
2.769,1.6756262373719
2.77,-0.146391710311056
2.771,-0.628259343753323
2.772,-1.15659007026091
2.773,-1.24930832457758
2.774,-1.18692672292283
2.775,-1.19256154738553
2.776,-1.21481046136326
2.777,-1.24731808558043
2.778,-1.10457333924226
2.779,-0.785669669995984
2.78,0.0906054924236566
2.781,1.58334772905389
2.782,2.40536311236616
2.783,3.21930548994254
2.784,4.6197759937487
2.785,4.95204157900769
2.786,5.18302241295202
2.787,3.76064260603275
2.788,2.36618076611637
2.789,1.6230464587557
2.79,0.174813948846065
2.791,-0.755936137199853
2.792,-1.16891327283307
2.793,-1.24999860737945
2.794,-1.23664400894942
2.795,-1.23680050271458
2.796,-1.22276669906819
2.797,-1.24656893350191
2.798,-1.09391751929613
2.799,-0.6308212426603
2.8,-0.0503064186445424
2.801,0.762260953952233
2.802,2.42788465717568
2.803,3.77124621341453
2.804,4.26987816535342
2.805,4.48477031048891
2.806,4.87884305218733
2.807,3.50804907170034
2.808,2.35336460706001
2.809,0.794190285672971
2.81,0.068929840623398
2.811,-0.797367521414949
2.812,-1.18842981553073
2.813,-1.24956461591197
2.814,-1.21902917972236
2.815,-1.21896458691383
2.816,-1.19276777869342
2.817,-1.245327393159
2.818,-1.14448595702681
2.819,-0.857000038479702
2.82,0.320385908386524
2.821,1.28728934570698
2.822,2.76594309721509
2.823,3.252327889898
2.824,4.35032274114142
2.825,4.94303189458072
2.826,4.54945110101051
2.827,4.27891549541814
2.828,2.85266629295634
2.829,0.975121168875136
2.83,0.451129326044917
2.831,-0.845527391551126
2.832,-1.18602810894103
2.833,-1.24947159696158
2.834,-1.21606356553559
2.835,-1.17972773639408
2.836,-1.18600021459565
2.837,-1.2449638661819
2.838,-1.19315457050631
2.839,-0.571410837690023
2.84,-0.147950624218946
2.841,1.1018803394528
2.842,2.21517975513827
2.843,3.67861260359539
2.844,4.35382421348721
2.845,4.39694929245707
2.846,4.34002896095763
2.847,3.34026926068123
2.848,2.62327157332459
2.849,0.879023928571997
2.85,0.0947552039804019
2.851,-0.710853432358259
2.852,-1.08252330885414
2.853,-1.24904212916278
2.854,-1.23107979738041
2.855,-1.21338879931234
2.856,-1.1852248906224
2.857,-1.22358572218054
2.858,-1.19272494770117
2.859,-0.780118469676293
2.86,-0.0458323516067763
2.861,1.10992250608566
2.862,2.36344907662784
2.863,3.26634249274951
2.864,5.41573934290984
2.865,4.5105864648778
2.866,4.97261400820107
2.867,4.43489786612485
2.868,2.71420793850573
2.869,1.36620839117743
2.87,0.135441692333816
2.871,-0.797610939179355
2.872,-1.06175819480541
2.873,-1.24450887726556
2.874,-1.24893699825028
2.875,-1.2261177544883
2.876,-1.16707590763879
2.877,-1.22703518428282
2.878,-1.10994111404749
2.879,-0.779352353185339
2.88,0.176180807170538
2.881,1.12201109208905
2.882,2.92417333656873
2.883,3.60776902835043
2.884,4.33769917699985
2.885,4.6753132507907
2.886,4.58638510798808
2.887,3.35794779288016
2.888,1.82907353208517
2.889,0.975177264302016
2.89,0.00617389305805201
2.891,-0.904524841277782
2.892,-1.09994645453975
2.893,-1.21220567427779
2.894,-1.20009653821234
2.895,-1.21006280665024
2.896,-1.2181274391257
2.897,-1.22526132152443
2.898,-1.1484996736226
2.899,-0.487032046129271
2.9,-0.128773404785604
2.901,0.861473653395712
2.902,2.66283517873506
2.903,3.61725489458804
2.904,4.44352946238933
2.905,3.98216449494593
2.906,5.21692739127448
2.907,3.86213398934753
2.908,2.66900011841079
2.909,1.38493337860141
2.91,0.327658379742853
2.911,-0.828977601214322
2.912,-1.07054483120791
2.913,-1.24325695159725
2.914,-1.23685891956831
2.915,-1.21823862250252
2.916,-1.20455419446937
2.917,-1.24144823978808
2.918,-1.20746587112733
2.919,-0.550285876907786
2.92,-0.13054688531228
2.921,1.43515664614524
2.922,2.56765724767317
2.923,3.40030452856261
2.924,4.4869397136076
2.925,5.7981646503581
2.926,4.65766319933616
2.927,3.24086931140487
2.928,2.70865068671469
2.929,0.921271744877571
2.93,0.0136292072875056
2.931,-0.81035467181825
2.932,-1.12800262793944
2.933,-1.2496764978363
2.934,-1.14161197779971
2.935,-1.14023027529552
2.936,-1.24506388227344
2.937,-1.24640505500397
2.938,-0.980039848234569
2.939,-0.722944233502422
2.94,-0.240203309790964
2.941,1.55939158948458
2.942,2.37437943247419
2.943,3.78546472873431
2.944,5.52932483436768
2.945,5.75058885621176
2.946,4.92905283855258
2.947,3.72347766499946
2.948,2.62849776118425
2.949,1.31436917269163
2.95,-0.228566925129579
2.951,-0.640429548817029
2.952,-1.2066425004214
2.953,-1.24660450974568
2.954,-1.2381377511109
2.955,-1.18813154181951
2.956,-1.2438108494766
2.957,-1.24269286392328
2.958,-1.05282908290878
2.959,-0.39062284867473
2.96,0.204106484882321
2.961,1.22002350587432
2.962,2.51871723555799
2.963,3.09298929503291
2.964,5.27175814155414
2.965,4.90778235478244
2.966,3.92426990283899
2.967,3.80831989766251
2.968,1.79087349460826
2.969,1.54143679214469
2.97,-0.483447736067815
2.971,-0.918663980488359
2.972,-1.14050372142356
2.973,-1.24912053110401
2.974,-1.19963303937597
2.975,-1.23500889493944
2.976,-1.24333576642994
2.977,-1.21933851116425
2.978,-1.16260564150742
2.979,-0.635378956051961
2.98,-0.182157225367128
2.981,1.3151616754841
2.982,2.36620642868211
2.983,2.99239539541679
2.984,4.96530753140211
2.985,5.04304724241265
2.986,4.60622562449606
2.987,3.52946897303315
2.988,2.82077691166908
2.989,0.862769006742781
2.99,0.0649407978855027
2.991,-0.691204348284017
2.992,-1.09806316882508
2.993,-1.24121101174671
2.994,-1.16800920314097
2.995,-1.22932811607975
2.996,-1.24685113545728
2.997,-1.23042540315517
2.998,-1.19766245266258
2.999,-0.832025992527246
3,0.0709901036604105
3.001,9.19436926847081
3.002,24.8192884551295
3.003,42.0419553876705
3.004,56.7493784435231
3.005,59.3768286963086
3.006,56.9539780994307
3.007,40.8537446742576
3.008,24.0252310086832
3.009,9.48548456423958
3.01,-0.000434389234874264
3.011,-0.486102195324536
3.012,6.50953288039868
3.013,18.4225924840688
3.014,26.9665630632035
3.015,32.0527701293801
3.016,26.7965284004073
3.017,18.0507217257121
3.018,5.94517763411142
3.019,-0.46054956349012
3.02,0.152128935644336
3.021,9.06721477871288
3.022,24.654327806055
3.023,38.9376869353377
3.024,54.7570780483851
3.025,60.1205237879691
3.026,54.6829272950244
3.027,40.3396179862573
3.028,24.4020826824606
3.029,8.55784706183023
3.03,0.0858491481254169
3.031,-0.304961959519845
3.032,6.50849209716083
3.033,17.0132586747432
3.034,25.3455904155306
3.035,30.0681367820757
3.036,26.8843850609456
3.037,17.1852903579222
3.038,6.32961361470966
3.039,0.0419376449664943
3.04,0.00584127287632815
3.041,8.18625155876551
3.042,24.4413005618843
3.043,40.7279611822482
3.044,56.7378118326357
3.045,58.8393103293142
3.046,56.8971632518578
3.047,41.3741299053719
3.048,25.3166971771627
3.049,8.09746050705661
3.05,0.192666265787966
3.051,-0.494320729312046
3.052,6.5812172492495
3.053,17.2673673784597
3.054,25.535335689237
3.055,30.1023216255608
3.056,26.5516165327834
3.057,17.5596525926125
3.058,5.80634873755962
3.059,-0.295157124810951
3.06,0.0867860628762775
3.061,9.57114110562213
3.062,23.872784880804
3.063,43.7337431285678
3.064,53.9935125413167
3.065,63.3459315364805
3.066,55.6311192630139
3.067,42.1430305754676
3.068,24.1937615248621
3.069,9.36015964123008
3.07,-0.135841282406709
3.071,-0.242828337495313
3.072,6.60219144453401
3.073,17.507122918115
3.074,25.1674713774589
3.075,31.6792699821782
3.076,27.3301035398475
3.077,16.1046749449958
3.078,6.79721569803282
3.079,0.119446516323372
3.08,0.11110561092927
3.081,9.54986667804443
3.082,24.2400606860565
3.083,40.9970917089915
3.084,56.8112769886532
3.085,64.1074741555188
3.086,53.5041236007136
3.087,43.3244108194374
3.088,24.0425959530571
3.089,9.88009124702261
3.09,0.164478159882574
3.091,-0.174314507297034
3.092,6.01556572488881
3.093,17.3249559976292
3.094,26.3229364525331
3.095,32.4577507387193
3.096,26.5256235660771
3.097,16.1390699101742
3.098,6.86781142131284
3.099,-0.368800446114783
3.1,0.0112643757292922
3.101,8.65473221769426
3.102,23.424734463832
3.103,43.6167494207809
3.104,53.6200586515592
3.105,60.1027750644071
3.106,55.2743751480515
3.107,40.3525956574108
3.108,26.7546411343518
3.109,9.84598702638842
3.11,0.239531081108383
3.111,-0.142285595727903
3.112,6.44688442012551
3.113,15.9242969710685
3.114,27.7022753428325
3.115,30.0868673219168
3.116,27.0920145463164
3.117,18.4705188462071
3.118,6.3544109821113
3.119,-0.0382536014363692
3.12,0.0022550686763094
3.121,9.75037366022591
3.122,24.6973054753715
3.123,43.3015834566813
3.124,54.523456229187
3.125,62.5534337247261
3.126,54.1580062162522
3.127,38.3893651106261
3.128,24.5521784076534
3.129,8.67899950459475
3.13,-0.0327464575630302
3.131,-0.0923357104213007
3.132,6.10777059055646
3.133,16.3587110531644
3.134,27.1825262796773
3.135,30.5058573130485
3.136,26.8369893432624
3.137,16.9141070930064
3.138,7.70158361670841
3.139,-0.438563000532805
3.14,0.0330845412141163
3.141,8.89263581159354
3.142,23.5634685394707
3.143,40.8316300316427
3.144,57.4621547731898
3.145,60.235289216506
3.146,53.0902862826495
3.147,42.0701645381242
3.148,25.4298187364441
3.149,8.75304895556937
3.15,-0.113163539145989
3.151,-0.241661271230407
3.152,6.3078863960628
3.153,18.115442490587
3.154,27.2326870726999
3.155,29.3240811667882
3.156,27.7466649856202
3.157,17.143920271267
3.158,7.25787023195382
3.159,-0.304800436969015
3.16,-0.288606812843451
3.161,8.88386843738764
3.162,25.4427746362148
3.163,44.0361273057204
3.164,55.3693044546621
3.165,62.0358341672102
3.166,55.5503584137244
3.167,40.8250306550123
3.168,25.0360446731289
3.169,9.53333170866882
3.17,0.387402253426236
3.171,0.00427036467054087
3.172,7.41764364201847
3.173,17.9144760111095
3.174,26.7241324992141
3.175,29.4063265900578
3.176,26.4371443171764
3.177,17.9611043421007
3.178,7.0270866826497
3.179,-0.570014503951068
3.18,0.192321267072335
3.181,8.16958606791551
3.182,24.5363647475723
3.183,43.655945479227
3.184,56.6427740474062
3.185,60.2396214148632
3.186,54.7953787415485
3.187,38.8900072744324
3.188,23.854667142953
3.189,8.87746350413343
3.19,0.114595402148347
3.191,-0.362399961814574
3.192,6.17002836283543
3.193,15.9972508214866
3.194,26.5405137150703
3.195,31.8506365405581
3.196,27.787304428992
3.197,16.8349150313878
3.198,6.73505735002318
3.199,-0.106022355268237
3.2,0.0479401214022643
3.201,8.82326523593199
3.202,24.7704869160823
3.203,41.7838873369707
3.204,53.4795410373713
3.205,59.3988388133182
3.206,53.7505393647287
3.207,43.8110915912384
3.208,25.3852985598264
3.209,8.33743310720174
3.21,-0.104689410963363
3.211,-0.339647876503094
3.212,6.01622855771549
3.213,16.6838488909232
3.214,26.4547885015541
3.215,29.7743047335081
3.216,27.6862935709044
3.217,17.807648841611
3.218,6.54902550710036
3.219,-0.127530637087886
3.22,-0.141254049204553
3.221,8.50327766952157
3.222,24.1295966720084
3.223,41.7675756649124
3.224,54.2435465150747
3.225,60.4837319729349
3.226,55.4105605466583
3.227,41.7927594032467
3.228,25.0911983181281
3.229,8.76616557425104
3.23,-0.18101327835153
3.231,-0.514437616074116
3.232,6.69878637848016
3.233,17.0473542753787
3.234,26.9052498711002
3.235,29.2046062547365
3.236,25.0007198006201
3.237,17.1663811713864
3.238,6.32809704499097
3.239,-0.414373105381
3.24,0.0089264818905024
3.241,9.50644095232304
3.242,24.4906982741002
3.243,40.9200376547123
3.244,53.2462642861632
3.245,59.9968846006783
3.246,53.7443864008389
3.247,40.6963607311732
3.248,25.3273302605513
3.249,9.007134090188
3.25,0.0151159368257789
3.251,-0.495022837544116
3.252,6.48169757640549
3.253,15.9536550446545
3.254,27.4205023333605
3.255,29.3620499380964
3.256,25.8397689338026
3.257,18.7203591547336
3.258,6.09872513417511
3.259,-0.433651161851391
3.26,-0.137209531191093
3.261,9.26066826991935
3.262,26.7021785405147
3.263,41.2922102123489
3.264,54.407089068697
3.265,59.4070917995805
3.266,55.5171167457349
3.267,42.0385314478391
3.268,25.1035724975198
3.269,9.50347442497498
3.27,0.264314417785142
3.271,-0.125151321410155
3.272,6.07089125448412
3.273,17.6088603948306
3.274,26.8654383588316
3.275,30.7237995308915
3.276,27.549965055343
3.277,17.8268255475259
3.278,6.91985384136723
3.279,-0.126219651513916
3.28,-0.0387444722657269
3.281,9.51375627219752
3.282,23.6290212031048
3.283,41.9124225600635
3.284,55.5638386521857
3.285,58.6870680412477
3.286,53.9257512855193
3.287,40.2817738790438
3.288,24.6402599588889
3.289,8.30929868428968
3.29,-0.0800450607711016
3.291,-0.503035600987735
3.292,7.60128268407363
3.293,18.1849529202525
3.294,25.7094974458628
3.295,30.1655045612614
3.296,27.3442426274788
3.297,16.3648968937832
3.298,6.73666594458908
3.299,-0.38337399143023
3.3,0.228505242683007
3.301,9.08754060118434
3.302,24.4547797644091
3.303,40.2837195608757
3.304,55.3915866861437
3.305,62.4264239301693
3.306,56.2386065157451
3.307,41.6388837092485
3.308,24.6966490705585
3.309,9.19990809031771
3.31,0.204406430385329
3.311,-0.485914690697857
3.312,6.88115783404072
3.313,17.6836524486371
3.314,27.442315107745
3.315,29.3437197851692
3.316,26.3235313934938
3.317,18.8727530541742
3.318,6.39867487806605
3.319,-0.233262981635521
3.32,-0.0368075474318377
3.321,8.87065818270359
3.322,26.1630384508864
3.323,42.1603571487079
3.324,56.0026366177649
3.325,60.0781920574213
3.326,54.7292106055222
3.327,40.9570233184789
3.328,24.981850526454
3.329,8.18035103948112
3.33,0.539539358133436
3.331,-0.463890897703264
3.332,6.68255960608574
3.333,16.5778828118282
3.334,27.1409223285274
3.335,28.6815571404944
3.336,26.5767675484533
3.337,17.6505218054238
3.338,6.4302857100951
3.339,-0.635032728239482
3.34,-0.0687628982807138
3.341,7.81346071092087
3.342,22.3561430222755
3.343,42.727112867952
3.344,55.4386488580507
3.345,58.4882547292052
3.346,55.0576601890623
3.347,40.8125509251431
3.348,24.6405454916232
3.349,10.0216287839783
3.35,-0.0606076476324532
3.351,-0.505794842182003
3.352,6.80135066139212
3.353,16.6949531630015
3.354,25.5723118535844
3.355,28.683262690826
3.356,26.6901462681214
3.357,18.0649103851944
3.358,6.37677597936087
3.359,-0.260412467751872
3.36,0.0669020755258562
3.361,9.80412997029569
3.362,23.0994426039505
3.363,41.2986191623135
3.364,52.9295268760483
3.365,59.2377968015239
3.366,52.8984713854622
3.367,40.2359736319234
3.368,24.5200586881063
3.369,8.39463406231333
3.37,0.199385625323985
3.371,-0.273975143539986
3.372,6.50196638784225
3.373,16.7684373162008
3.374,27.2504131039829
3.375,28.925212108785
3.376,28.2421847500312
3.377,16.9514362846489
3.378,7.05785717636438
3.379,-0.194933675484974
3.38,-0.150669220101747
3.381,9.30476941230645
3.382,23.3404065519406
3.383,42.4053917135156
3.384,54.6487769144076
3.385,59.0054970729003
3.386,54.8037929632483
3.387,40.9233384161478
3.388,24.8661069678502
3.389,9.68174553874922
3.39,0.0720894161277965
3.391,-0.600006385215206
3.392,6.66343529451253
3.393,17.6092876746983
3.394,24.3887986385263
3.395,30.2681718785943
3.396,25.2360927233526
3.397,17.0215330308108
3.398,6.16519882382891
3.399,-0.202897495858676
3.4,-0.0588699702789824
3.401,8.98970820420061
3.402,24.4647296000617
3.403,40.5911490677269
3.404,54.8518912501962
3.405,60.726082042516
3.406,55.5283950041706
3.407,38.8083773528254
3.408,24.0578723019423
3.409,8.93455643625714
3.41,-0.0253835296466956
3.411,-0.244676580806002
3.412,6.89800424174419
3.413,14.6752805650798
3.414,27.2557924371486
3.415,31.5347523085061
3.416,26.7658306085209
3.417,17.2683435083822
3.418,5.9302724694339
3.419,-0.370841135490616
3.42,0.343029869253292
3.421,8.4695174794907
3.422,26.3438481645719
3.423,42.9673125772102
3.424,55.3239682286346
3.425,61.0457661773293
3.426,54.3144511271961
3.427,42.2659699519312
3.428,25.213403981494
3.429,8.51980378619049
3.43,-0.0686677992986196
3.431,-0.154584077100024
3.432,6.24687084986943
3.433,17.9248075425395
3.434,25.3662215299226
3.435,30.7679718078159
3.436,27.7308623125844
3.437,17.6873525496373
3.438,6.15417124617314
3.439,-0.415903538597223
3.44,-0.0833381115890037
3.441,8.35377716989402
3.442,24.4917103062398
3.443,39.4199633849206
3.444,55.2384495689172
3.445,59.3838023210573
3.446,57.1152543066738
3.447,41.3348095923443
3.448,24.1835122115356
3.449,9.553687629047
3.45,0.0653587283743576
3.451,-0.378689952350492
3.452,7.01175326649074
3.453,16.4493340439146
3.454,26.1829064403962
3.455,30.1000689561746
3.456,27.9784550718997
3.457,16.5545753100442
3.458,7.02420035712867
3.459,-0.0849692173219294
3.46,-0.107761262491998
3.461,9.63161048791937
3.462,25.9147254267108
3.463,41.6494005723382
3.464,54.211651100602
3.465,58.5314098252936
3.466,55.4825863775153
3.467,41.5393839229384
3.468,23.1818268031001
3.469,8.96029768861697
3.47,0.0135478844573964
3.471,-0.603350934169713
3.472,6.48591244137658
3.473,18.3724655669122
3.474,26.960069118913
3.475,30.6350241807647
3.476,27.7199288469567
3.477,17.0033622187718
3.478,7.12188266381914
3.479,-0.217894605408252
3.48,0.0374282856564807
3.481,9.34276642966255
3.482,25.2796518529271
3.483,41.972368889111
3.484,53.6822738155342
3.485,61.1415292009988
3.486,56.5293703410243
3.487,43.0843397902528
3.488,24.2172125828594
3.489,8.5298534444133
3.49,0.00728126501914931
3.491,-0.252303951294343
3.492,6.8914258907283
3.493,16.5168068648689
3.494,26.4843773108618
3.495,27.087079687775
3.496,26.6440858402218
3.497,17.4117688601974
3.498,6.65217503532477
3.499,-0.419994213302955
3.5,-0.195081336856483
3.501,9.32885875025931
3.502,23.7642792593286
3.503,40.0876148090286
3.504,54.8724887855407
3.505,59.4536724277971
3.506,53.7785033549594
3.507,41.0075173647718
3.508,22.5674178867429
3.509,8.51805983556451
3.51,-0.199717550234405
3.511,-0.110089035320309
3.512,7.36850631153842
3.513,16.6329631696497
3.514,25.464019505924
3.515,30.0721023923891
3.516,26.7964854839451
3.517,16.0613486397174
3.518,7.69405502045452
3.519,-0.203286988597624
3.52,0.29217454321167
3.521,8.56779773001064
3.522,24.9574246623211
3.523,41.545201992363
3.524,54.3593867798321
3.525,58.7933115029865
3.526,56.6337169979999
3.527,42.2982709963694
3.528,25.3880858267323
3.529,8.31223085811422
3.53,0.0205103346913605
3.531,-0.208259604240589
3.532,5.87849763241606
3.533,17.2524473750237
3.534,26.9208397077116
3.535,29.9297467912949
3.536,26.2959526085778
3.537,16.9985873763009
3.538,7.07080846651868
3.539,-0.358935051826739
3.54,0.0627336530845394
3.541,9.22114725448153
3.542,23.2445793112991
3.543,40.7617794371686
3.544,54.022217187359
3.545,59.2855892111994
3.546,54.7778174104217
3.547,41.422035935816
3.548,23.7985803640232
3.549,9.95095197708553
3.55,0.469649074742675
3.551,-0.312063963598902
3.552,6.78178676284832
3.553,17.8752843268822
3.554,26.943619585435
3.555,30.7303864141074
3.556,27.4427722846105
3.557,17.32386063712
3.558,6.42812753972012
3.559,-0.352122879837253
3.56,0.0909796714844832
3.561,9.74763515206542
3.562,24.7307544888341
3.563,40.958558134147
3.564,55.8274265470633
3.565,59.5903881916112
3.566,52.838719713767
3.567,41.5184869671082
3.568,24.2324879037565
3.569,9.01079182239731
3.57,0.281851327122851
3.571,-0.483291922527945
3.572,6.45660848251227
3.573,17.4026279840342
3.574,27.1205449807149
3.575,30.6690463348252
3.576,25.1873954030032
3.577,18.1525847620516
3.578,6.83966680594726
3.579,-0.0358947211854854
3.58,-0.118228032588725
3.581,8.82284665320559
3.582,24.9168445430001
3.583,41.201946582053
3.584,55.9374047657477
3.585,61.5410573653865
3.586,56.2288252282075
3.587,40.8536502413618
3.588,23.8268245659302
3.589,9.05229884424244
3.59,0.379449784746218
3.591,0.0414908784549706
3.592,7.0685873536312
3.593,18.3969955043347
3.594,26.7685170429372
3.595,30.172338517408
3.596,25.5455355791459
3.597,16.4833105871434
3.598,5.70613565168628
3.599,-0.468438906639156
3.6,0.0628704732171922
3.601,9.00639394583267
3.602,25.119693522888
3.603,40.4351595039403
3.604,55.4213428702384
3.605,63.4386785792173
3.606,52.7104542796538
3.607,42.6631878365493
3.608,23.0350652930812
3.609,8.11665998143812
3.61,0.174621173741534
3.611,-0.35955455172137
3.612,6.66685175627627
3.613,17.1660975310331
3.614,24.8624210637027
3.615,32.3256527302114
3.616,26.0488431304557
3.617,17.7259247781541
3.618,6.44046240949089
3.619,-0.667989174613016
3.62,0.125904596011647
3.621,9.85363125692921
3.622,24.6029603369221
3.623,42.6199821998108
3.624,54.2435626047309
3.625,61.8850183434893
3.626,52.3751838005641
3.627,41.7662697468251
3.628,22.6382398655871
3.629,8.83308328832347
3.63,0.177204426095203
3.631,-0.348028360028439
3.632,5.90461921310196
3.633,17.5702762762242
3.634,26.1485210598191
3.635,28.7322967221408
3.636,25.5445577940199
3.637,17.2987520547857
3.638,6.65014858899482
3.639,-0.207459669422145
3.64,-0.280042855136584
3.641,9.21558586453867
3.642,24.5149907412773
3.643,41.5002026878832
3.644,55.0784661026722
3.645,59.4077416160191
3.646,55.9830819497321
3.647,41.7990455913081
3.648,22.3525676007267
3.649,9.20468916748824
3.65,0.0177304827431111
3.651,-0.43635212668674
3.652,5.83259010799375
3.653,16.6284355446548
3.654,26.5327259437594
3.655,30.7402643718953
3.656,26.1862148569052
3.657,17.5690419392715
3.658,6.79905706152255
3.659,-0.30674705327258
3.66,0.0923550786095214
3.661,8.95532675834739
3.662,24.8140807639506
3.663,40.9605076519081
3.664,54.8249144053961
3.665,58.8579046009231
3.666,53.9335452289217
3.667,41.8868917361218
3.668,23.5291534472607
3.669,8.7247860600827
3.67,-0.0248444870358842
3.671,-0.284423459530651
3.672,7.30362460391803
3.673,18.4499549535469
3.674,25.6007686842814
3.675,29.9978630942225
3.676,25.242978837576
3.677,18.0892535493416
3.678,6.90889808543985
3.679,-0.344210327372817
3.68,-0.0164824037931017
3.681,7.70304704515323
3.682,24.5939069059002
3.683,40.759286358534
3.684,51.5045802819975
3.685,61.5420801727802
3.686,57.610295163672
3.687,42.7972958969801
3.688,25.1310780526545
3.689,9.29427944791209
3.69,0.0207822966777606
3.691,-0.137955808575646
3.692,7.47358583921879
3.693,17.4546981499771
3.694,26.9959702704402
3.695,29.1839828910814
3.696,26.1527492826765
3.697,16.8847328367558
3.698,6.78308645523495
3.699,-0.500514975468286
3.7,0.38570024915145
3.701,9.70230129469681
3.702,24.7544556560885
3.703,40.9331130108099
3.704,55.0556666898972
3.705,57.8153868094098
3.706,57.9203050550534
3.707,40.5093761885919
3.708,21.9103365380596
3.709,9.05061795808786
3.71,-0.110354444629112
3.711,-0.391406518638097
3.712,7.27669179409645
3.713,17.6470450140497
3.714,26.1108981321915
3.715,31.2724787766917
3.716,26.6993919490076
3.717,16.740939328415
3.718,5.95477490385305
3.719,-0.539744347320228
3.72,-0.12792935910625
3.721,8.16207511283578
3.722,24.27541083882
3.723,42.2556601683891
3.724,55.0931367620736
3.725,58.9470904084109
3.726,54.0236264784054
3.727,39.9332588253629
3.728,24.6087664634403
3.729,9.59114980685448
3.73,-0.007014228762818
3.731,-0.176686927069912
3.732,6.67864215799871
3.733,16.4597633691881
3.734,27.5410302702529
3.735,30.1564903403436
3.736,27.5885497361369
3.737,17.9336461953823
3.738,6.6022640215488
3.739,-0.234775567627065
3.74,-0.148785152040734
3.741,9.3766408658229
3.742,23.7260438535156
3.743,44.341238627233
3.744,56.8685698301844
3.745,60.852983463626
3.746,54.1604907431776
3.747,42.2773667886484
3.748,24.2172313825784
3.749,9.1810476096131
3.75,0.376396694026935
3.751,-0.167770166339666
3.752,6.54759701635521
3.753,16.1594441763397
3.754,26.4598512420424
3.755,30.8200029292034
3.756,25.2626417000652
3.757,16.785698846769
3.758,6.93915879152128
3.759,-0.460166801464751
3.76,0.250885973513093
3.761,8.90850052846551
3.762,22.6541729048486
3.763,40.0410669325035
3.764,55.3919856054827
3.765,61.8414546769351
3.766,53.3076681489432
3.767,39.924832626211
3.768,23.586430255598
3.769,8.96643002768378
3.77,-0.29247769641339
3.771,-0.253845047232294
3.772,6.53879761659684
3.773,16.3023594871231
3.774,25.6952608425171
3.775,29.7506707574876
3.776,26.457518084069
3.777,17.01333333959
3.778,7.05561005104574
3.779,-0.558687561592391
3.78,-0.053340191120871
3.781,7.67416822405555
3.782,24.829836984133
3.783,40.2112099994076
3.784,53.0319952028252
3.785,59.7229633035083
3.786,53.7799731048859
3.787,41.1840923205355
3.788,22.41778925334
3.789,8.1035601696949
3.79,-0.0403610980081411
3.791,-0.278899399543144
3.792,7.07987214941613
3.793,16.2705249949517
3.794,26.5372986841361
3.795,30.5472861729261
3.796,26.4045349027147
3.797,17.5295492762934
3.798,6.8549616891282
3.799,-0.485833873321071
3.8,-0.0729708879025572
3.801,8.85215387283286
3.802,26.6589948682114
3.803,41.1627188062827
3.804,56.3273333330167
3.805,59.6559546977997
3.806,54.5476127805902
3.807,42.6583213724791
3.808,24.8836279583663
3.809,8.36049909754847
3.81,0.159455091967331
3.811,-0.199163955811922
3.812,6.98851860426818
3.813,18.9873168594364
3.814,24.7179495420011
3.815,29.8057618750407
3.816,24.9169917212312
3.817,17.694510824491
3.818,7.13356037882449
3.819,-0.464652117402824
3.82,0.227842546875411
3.821,7.65894395632873
3.822,24.5143449546954
3.823,40.9289828927404
3.824,55.5989034973565
3.825,60.5916248296377
3.826,53.2706198592753
3.827,39.9415108744155
3.828,24.8346560163859
3.829,8.60091534605438
3.83,-0.140935068145934
3.831,-0.403070586858621
3.832,7.65729969361121
3.833,17.8206342238543
3.834,26.5530398435106
3.835,30.6962354448559
3.836,25.8263680740246
3.837,17.8950329085865
3.838,6.90011073183315
3.839,-0.532263490029624
3.84,-0.16700858356999
3.841,8.35478922305141
3.842,24.2997290567176
3.843,42.0547260529135
3.844,51.3739430087263
3.845,59.695695756245
3.846,55.2246051826493
3.847,40.9912455091842
3.848,23.8239988420951
3.849,8.60738933762367
3.85,-0.233185952576278
3.851,-0.257900898461351
3.852,5.84754438950819
3.853,18.5508803448764
3.854,25.4184617026804
3.855,30.7283027202041
3.856,27.1967700664929
3.857,17.2576343644818
3.858,7.09745753999851
3.859,-0.561858313311826
3.86,0.01306189705872
3.861,9.44602335649027
3.862,23.5307093730042
3.863,39.9885348205171
3.864,54.93891909776
3.865,59.4726103316853
3.866,55.6813043616077
3.867,41.2253565133311
3.868,24.4669660398143
3.869,9.10272638613425
3.87,-0.00846478286815835
3.871,-0.310462735996072
3.872,6.53678883448671
3.873,18.4445791517898
3.874,26.6506450339964
3.875,29.5003968032147
3.876,29.2996684228987
3.877,16.3445265422551
3.878,5.93193163481495
3.879,-0.592274560298319
3.88,-0.00240836834423408
3.881,8.89563975909358
3.882,24.8484556608293
3.883,42.1589288188517
3.884,53.8018200517381
3.885,61.4549761078739
3.886,56.2035796413169
3.887,40.0121702166505
3.888,24.5566303500552
3.889,8.06520749380487
3.89,-0.0909154750719977
3.891,-0.138302078118114
3.892,6.54521301088655
3.893,17.9538733035725
3.894,24.7594238851505
3.895,29.8926110474503
3.896,25.6265008906374
3.897,17.6124820540761
3.898,5.89588017863533
3.899,-0.400112740065159
3.9,0.281324954163727
3.901,9.30661337489905
3.902,23.6498762625631
3.903,40.2547525793399
3.904,53.7512204996627
3.905,59.2595890508423
3.906,55.0643111650808
3.907,41.3568246812872
3.908,25.0834781847734
3.909,9.88987372235769
3.91,0.214839008908162
3.911,-0.679046244712245
3.912,6.65261534572804
3.913,18.0313758262098
3.914,27.5123446317343
3.915,30.6732728677484
3.916,27.1627537378284
3.917,17.7069048847891
3.918,6.27325730153777
3.919,-0.391561456678526
3.92,-0.0473495019034134
3.921,10.0501134986955
3.922,23.9832158168438
3.923,42.679771779002
3.924,54.042400592971
3.925,61.8696988604775
3.926,53.7161154132433
3.927,40.7277167657587
3.928,23.4288598629525
3.929,7.94143940435926
3.93,-0.154747786724549
3.931,-0.431878534400944
3.932,6.50948355670029
3.933,16.954885752968
3.934,26.1903840501004
3.935,28.932335250265
3.936,26.1736022768832
3.937,18.0587381316613
3.938,5.79570136409254
3.939,-0.245995244169849
3.94,0.414106992994992
3.941,7.75396560623968
3.942,24.4536428811029
3.943,41.6215442929061
3.944,55.419870217091
3.945,59.082814082746
3.946,53.074510216498
3.947,42.7475156751733
3.948,22.7566333360459
3.949,8.48630569682834
3.95,-0.347718971182474
3.951,-0.381716004503638
3.952,7.3942306921123
3.953,16.3081653852278
3.954,26.7857339660719
3.955,30.6655396635422
3.956,26.8323616132081
3.957,16.7200269444881
3.958,6.51778389929642
3.959,-0.484417428088237
3.96,-0.00380383978015036
3.961,9.06943096031904
3.962,23.7010820477503
3.963,42.6309140033659
3.964,53.3196815185325
3.965,57.2182595704881
3.966,54.007619894687
3.967,40.7833233033489
3.968,24.3125995556808
3.969,9.92110863500132
3.97,0.0653771485202741
3.971,-0.505265905137823
3.972,6.5393447111402
3.973,16.4966563436987
3.974,26.0048166719808
3.975,30.0361304098785
3.976,25.4773333968315
3.977,17.4289034787967
3.978,5.76358444284581
3.979,-0.122445905170558
3.98,0.217552355723145
3.981,9.43238600273145
3.982,24.9970182440343
3.983,42.170270932695
3.984,55.5579780092389
3.985,59.1202099975058
3.986,53.7782099286028
3.987,41.3180537652723
3.988,25.0294258061426
3.989,9.06718684101146
3.99,-0.469092206434965
3.991,-0.27059133315667
3.992,7.18910193943968
3.993,17.2017819387478
3.994,26.1623401610247
3.995,28.5561410278427
3.996,24.7088371394876
3.997,18.01035293672
3.998,6.95681303028544
3.999,-0.201490406011289
4,0.0506751713881348
4.001,9.52660567267011
4.002,23.5881303058897
4.003,41.4511368635598
4.004,54.2476585523678
4.005,62.2413848231323
4.006,57.0621669018238
4.007,40.2987617798477
4.008,25.0712420484323
4.009,8.7175287892588
4.01,-0.319785592979537
4.011,-0.680341289894653
4.012,7.28117513488176
4.013,16.2326509310436
4.014,25.7879953005955
4.015,30.4370777839431
4.016,25.9092093859871
4.017,17.3260058395732
4.018,6.52117805145267
4.019,-0.454946709255941
4.02,0.280733958181704
4.021,8.42893605697584
4.022,24.3721515885135
4.023,41.6596674517646
4.024,54.3531264863537
4.025,57.6686172915815
4.026,54.7501447970854
4.027,42.7110664210007
4.028,25.1727370489722
4.029,9.00212799953638
4.03,0.378465730433004
4.031,-0.481365995485647
4.032,6.27011942868159
4.033,17.7611434292247
4.034,26.057120794216
4.035,30.6732403563521
4.036,26.8617861172881
4.037,17.4667416115687
4.038,6.07673784995253
4.039,-0.479909101385227
4.04,-0.00862276943664028
4.041,10.2683072084456
4.042,23.8266138877081
4.043,42.6300170807008
4.044,55.4181710548972
4.045,58.6881095987733
4.046,55.5727958200492
4.047,40.4632884842792
4.048,23.8115589697013
4.049,9.1144015700531
4.05,0.265688025589481
4.051,-0.360625771912467
4.052,6.86289536996216
4.053,16.432538916564
4.054,26.056043112541
4.055,29.764936623575
4.056,25.5908416326698
4.057,17.4637580667209
4.058,6.50772855560085
4.059,-0.395689083361538
4.06,-0.157079575638828
4.061,9.08412004971072
4.062,24.6175155049157
4.063,41.341176930959
4.064,52.4885031099951
4.065,60.4689997300977
4.066,54.9085599883426
4.067,41.2671680366801
4.068,24.6803868540153
4.069,9.9728301547937
4.07,0.056872084121695
4.071,-0.576729385309899
4.072,7.25185293129355
4.073,17.1708112080906
4.074,27.3757879738074
4.075,31.3548199536463
4.076,25.9725758124307
4.077,17.5276281160278
4.078,6.68627536679564
4.079,-0.154901781902604
4.08,-0.204186296813017
4.081,8.78590730923056
4.082,23.1515689635933
4.083,41.3313894998542
4.084,54.0603532952871
4.085,56.6149438618675
4.086,55.592695332029
4.087,41.4575207468928
4.088,25.2454172879078
4.089,8.80086493174854
4.09,0.331974079115364
4.091,-0.412604633692766
4.092,6.87843387088871
4.093,17.8512680301063
4.094,28.0725191000204
4.095,31.3439780355821
4.096,25.5795902318284
4.097,16.9560834625913
4.098,7.2227929049554
4.099,-0.254542442723803
4.1,-0.0851179633917095
4.101,9.33038923772488
4.102,22.8567294334085
4.103,41.1073199416973
4.104,56.6509926342675
4.105,59.2456601460297
4.106,55.4486156175077
4.107,42.9940185286996
4.108,24.8082079632604
4.109,7.8268100441029
4.11,0.179652841801792
4.111,-0.41130210012517
4.112,6.46041129105294
4.113,17.6144780062714
4.114,27.3484097460863
4.115,29.878822177763
4.116,25.8340879171979
4.117,15.1046845887079
4.118,6.85558667470192
4.119,-0.21474031668802
4.12,-0.191282932252729
4.121,8.74885578621038
4.122,23.7010497330128
4.123,41.408206017684
4.124,55.1611252839492
4.125,63.5141440540394
4.126,53.5706112962144
4.127,41.0138392137387
4.128,22.9291606211955
4.129,9.72400991456187
4.13,-0.105638035198319
4.131,-0.423317846189468
4.132,5.85775499268997
4.133,17.2719157367667
4.134,26.0126307357187
4.135,31.2806851573234
4.136,29.0550408407534
4.137,16.6335449105238
4.138,6.75681626253869
4.139,-0.350406338625949
4.14,0.256467322934353
4.141,9.11983744991309
4.142,22.3711942626704
4.143,42.5596162463471
4.144,56.1071522620434
4.145,60.013290310908
4.146,54.3242286191186
4.147,42.0971709001886
4.148,23.5142580570321
4.149,9.06176622919914
4.15,0.232758284673201
4.151,-0.299238068660393
4.152,6.48604931910209
4.153,16.9769206064843
4.154,25.7621261310221
4.155,31.0181893803066
4.156,26.0314174925642
4.157,16.405881523976
4.158,7.01224961200712
4.159,-0.22746722569017
4.16,-0.305894649527412
4.161,9.13163044478109
4.162,25.2303944310525
4.163,40.8795722873752
4.164,54.8553813222652
4.165,58.0276640836327
4.166,56.0622838608091
4.167,42.9392590316376
4.168,23.7209212748146
4.169,8.40636810402491
4.17,-0.133032651387769
4.171,-0.526792040161115
4.172,7.34166673123413
4.173,18.6804037285496
4.174,26.2896986281857
4.175,29.3196168051886
4.176,27.4443860608459
4.177,16.5737851027274
4.178,6.54738106447954
4.179,-0.398471420253003
4.18,-0.250290877819375
4.181,9.48659602606476
4.182,24.8073393445715
4.183,41.526182140432
4.184,54.764720772985
4.185,61.5433694283294
4.186,52.7979511292251
4.187,42.2441265686629
4.188,24.7808562738952
4.189,9.30125390418957
4.19,-0.163694377008316
4.191,-0.0196656655457632
4.192,7.04341767231771
4.193,18.0460857031891
4.194,26.3635875202912
4.195,30.0899300369889
4.196,26.9100566651158
4.197,17.8993123738738
4.198,7.13577078745537
4.199,-0.368700049178186
4.2,-0.0723277405990001
4.201,9.10518889755802
4.202,23.1684842893907
4.203,43.4566131826632
4.204,56.3417181706172
4.205,58.6757057280811
4.206,53.7630097543635
4.207,43.5932258432568
4.208,23.6406331748574
4.209,8.77628424357774
4.21,0.0568237279102064
4.211,-0.334170156024735
4.212,6.71129453565621
4.213,16.2549565779681
4.214,24.5504255768645
4.215,31.1615917574237
4.216,25.9556866978037
4.217,15.0019516553087
4.218,6.83757195145439
4.219,-0.135836750080057
4.22,0.197285333553139
4.221,9.32716768936061
4.222,25.1596395362515
4.223,41.7787250433877
4.224,54.2019129017772
4.225,61.9493357240817
4.226,55.3607342247153
4.227,40.6553899066288
4.228,23.9571020639195
4.229,7.97663554251786
4.23,0.123800409300842
4.231,-0.11932389496658
4.232,6.4609327788423
4.233,16.4923214726402
4.234,25.985803379928
4.235,31.3538837425064
4.236,26.9243367316879
4.237,17.9138811700739
4.238,7.08411228944937
4.239,-0.49986525399676
4.24,-0.295568453775348
4.241,9.60416738897151
4.242,24.0958669582819
4.243,41.758962360749
4.244,55.8187271406255
4.245,61.8962769752784
4.246,54.4226074883601
4.247,42.7619949031529
4.248,24.5081147724981
4.249,8.19578638922304
4.25,-0.105805126475
4.251,0.158223270149205
4.252,6.45755647423786
4.253,16.0234191661373
4.254,28.3965183549967
4.255,29.9800350555846
4.256,24.8409785666869
4.257,16.2470939897106
4.258,7.06597771765596
4.259,-0.256681949524978
4.26,-0.221882378380168
4.261,8.55279001931596
4.262,24.8968934680699
4.263,42.1852520241545
4.264,54.6559234973079
4.265,62.3628295999818
4.266,53.8902075603776
4.267,40.3576431910705
4.268,23.7866254299733
4.269,8.24612847583116
4.27,-0.192179733979568
4.271,-0.279773187946261
4.272,5.86724416259915
4.273,17.4977404826567
4.274,26.1746695444164
4.275,30.2828837769706
4.276,26.837967643546
4.277,18.1417803490029
4.278,6.87253888363066
4.279,-0.710316461777862
4.28,-0.237028208561504
4.281,10.0988263289803
4.282,24.2522773331825
4.283,41.5762979479692
4.284,55.9448115709682
4.285,57.8219764743911
4.286,57.129620352329
4.287,42.0717179511288
4.288,24.1093609776997
4.289,8.46908165032213
4.29,-0.363247566030036
4.291,0.044195207015969
4.292,7.37593001606945
4.293,18.0595598033777
4.294,25.7039088613753
4.295,29.0422681708925
4.296,27.7953909804041
4.297,17.462932204057
4.298,6.33542773329741
4.299,-0.60346022225423
4.3,0.0433053130040302
4.301,8.54163388888251
4.302,24.1188387897986
4.303,42.0934711074887
4.304,53.5732878499194
4.305,58.9563824051006
4.306,55.2287116735734
4.307,42.5392573155998
4.308,24.4794349419057
4.309,8.91581140375074
4.31,0.0147512056605233
4.311,-0.0630041974878939
4.312,6.0785368908241
4.313,16.6216511512409
4.314,27.0316949094578
4.315,30.4870515301329
4.316,26.8077373443426
4.317,19.1616160707452
4.318,5.93093003375898
4.319,-0.394359522864279
4.32,-0.144762450664221
4.321,8.81996626921444
4.322,23.9761552323487
4.323,41.1109426604536
4.324,56.4146184649892
4.325,61.9636981356965
4.326,53.8778111501027
4.327,42.0695643372232
4.328,25.795657613971
4.329,8.35568877020311
4.33,-0.215023828051303
4.331,-0.242236537341123
4.332,6.28980167790531
4.333,16.8092856779048
4.334,25.2254614631141
4.335,32.7634818605159
4.336,25.5424321013341
4.337,16.6881164865199
4.338,6.83704906173141
4.339,-0.0992883747912634
4.34,-0.0153146468838653
4.341,8.89835407345853
4.342,24.7892939192879
4.343,41.4777480997639
4.344,54.7476048611732
4.345,61.852307037268
4.346,53.081197815722
4.347,41.887642289033
4.348,24.2449303321402
4.349,10.0880705693053
4.35,0.0881883457877504
4.351,-0.281514302895341
4.352,6.23103481001307
4.353,16.7438367940999
4.354,25.0400126300014
4.355,29.273199465821
4.356,26.6754554679203
4.357,17.4194881822965
4.358,6.57176309598928
4.359,-0.557729860814367
4.36,0.170283020245715
4.361,9.52585514000372
4.362,25.304163438894
4.363,40.3227464962677
4.364,52.0017972869173
4.365,62.9658537802436
4.366,56.6532814354042
4.367,41.0293865256111
4.368,24.1205473798711
4.369,8.69306130595415
4.37,0.198162010451562
4.371,-0.349559458208052
4.372,7.17877848143221
4.373,17.1848527115753
4.374,25.3293218084512
4.375,30.1846952834841
4.376,26.8182767829779
4.377,16.5718959921571
4.378,6.11629343257786
4.379,-0.31456937004658
4.38,-0.175305025559348
4.381,10.8800068099538
4.382,23.3619774845186
4.383,41.5375422225469
4.384,56.110828297211
4.385,62.1889268504579
4.386,54.624750436812
4.387,40.8947512370675
4.388,23.3643568761244
4.389,9.09016902932661
4.39,-0.0436659580682021
4.391,-0.505827258662527
4.392,7.39973224949934
4.393,17.5099055882489
4.394,25.1585051460175
4.395,30.2111970413771
4.396,28.2789493895304
4.397,16.6411628520454
4.398,8.13913155098147
4.399,-0.750749974999667
4.4,-0.252671525901905
4.401,9.0856108173788
4.402,23.7741806288658
4.403,43.2376039489403
4.404,55.0263402566378
4.405,59.0977112624413
4.406,54.7583217704532
4.407,39.9738584597221
4.408,24.3078595842779
4.409,9.12821500937493
4.41,-0.100659263665008
4.411,-0.0713839778278391
4.412,7.07890090944685
4.413,17.1649782256944
4.414,26.1581121161862
4.415,30.5650485926347
4.416,26.8942841148299
4.417,16.9946097530871
4.418,5.84573915936738
4.419,-0.209426555386413
4.42,0.0133901283940563
4.421,8.93650855381539
4.422,21.1220307521625
4.423,40.3488770869708
4.424,54.0907075890477
4.425,60.2046128721437
4.426,54.3528293530678
4.427,43.0299085764861
4.428,25.5114760763053
4.429,9.0574786791465
4.43,0.131954857227523
4.431,-0.039518719949184
4.432,7.31966078097794
4.433,17.7782246100808
4.434,26.8294199646784
4.435,29.939301842945
4.436,26.614627497571
4.437,17.1704244047475
4.438,7.00963997710071
4.439,-0.405275276786018
4.44,-0.0906761994496087
4.441,8.39683199135416
4.442,22.9436898692779
4.443,41.0043358420831
4.444,55.2843752812302
4.445,59.1041644573372
4.446,54.0294826452999
4.447,42.2707053565599
4.448,23.9424333725287
4.449,8.7442338249578
4.45,-0.297854614559811
4.451,-0.415755945764028
4.452,7.15120734346411
4.453,17.5076286843926
4.454,27.297770634041
4.455,29.0366573490507
4.456,27.1477946625225
4.457,17.7085923421685
4.458,6.58934041100111
4.459,-0.133114205832867
4.46,-0.0884326818957027
4.461,8.49519416942732
4.462,24.0431981200018
4.463,41.4473291097374
4.464,56.5301405957808
4.465,58.2952831910458
4.466,58.7013521998751
4.467,41.7058612733681
4.468,23.9644429758608
4.469,8.88402665636018
4.47,-0.232476451530437
4.471,-0.322177760676164
4.472,6.31647685950345
4.473,17.3227150210555
4.474,27.8771035922445
4.475,28.0118946588636
4.476,26.1787159314234
4.477,17.1499475391382
4.478,7.598120677716
4.479,-0.191699342191057
4.48,0.1773732563754
4.481,8.77262776157322
4.482,23.2979460913047
4.483,40.8478919418113
4.484,59.2045589066987
4.485,61.3520677595689
4.486,55.3152078755921
4.487,41.8868232867795
4.488,22.2068299030699
4.489,8.82815192634682
4.49,-0.00467900213772764
4.491,-0.461641907605867
4.492,6.79265805844324
4.493,16.8533988423856
4.494,26.4734253060378
4.495,31.6946244355905
4.496,26.9497966355783
4.497,17.2178842210463
4.498,7.65759306820561
4.499,-0.632275644306843
4.5,0.142680067448128
4.501,8.22297286224595
4.502,25.8702163829643
4.503,42.4480139313133
4.504,56.9193394273783
4.505,60.5258954968271
4.506,54.3626917083116
4.507,39.4156893507966
4.508,24.3406717474047
4.509,8.21195870090426
4.51,0.348325327631887
4.511,-0.510882353597741
4.512,6.50959933475816
4.513,17.4256661655191
4.514,27.9031311473696
4.515,30.6866005155244
4.516,25.2578417669877
4.517,17.3470823067066
4.518,6.39359819475083
4.519,-0.26033966631935
4.52,0.113387697207957
4.521,9.06930535389046
4.522,24.372684856215
4.523,39.0140433741932
4.524,55.359609449597
4.525,58.7104835091766
4.526,55.1756320995137
4.527,40.6397544023062
4.528,25.0548775637412
4.529,9.2274618396427
4.53,-0.129339803620298
4.531,-0.0724037289062611
4.532,6.83340967453582
4.533,16.1865846961666
4.534,24.4980555032698
4.535,29.1421476933091
4.536,27.2634808684677
4.537,18.4496665431829
4.538,7.18262814820551
4.539,-0.184840143344583
4.54,-0.108784372166863
4.541,8.79944378561652
4.542,23.6638489746014
4.543,42.1621715029045
4.544,56.2495733599702
4.545,59.4034202622533
4.546,54.6952418661592
4.547,43.2493074601043
4.548,24.3782551552605
4.549,7.90316228458764
4.55,-0.393625218812395
4.551,-0.312475519517093
4.552,6.47392611421212
4.553,15.4017586661455
4.554,27.510816462116
4.555,30.3951759008848
4.556,28.672665238409
4.557,17.0193150124741
4.558,7.04208998018416
4.559,-0.233132897550054
4.56,0.0519185374280669
4.561,8.36865652911233
4.562,23.9600275508881
4.563,41.7264435419611
4.564,56.2370079988004
4.565,58.5407953119787
4.566,54.7924311144064
4.567,40.6284534623392
4.568,23.8579556603127
4.569,8.70321653658693
4.57,0.316063070506634
4.571,-0.165868203094468
4.572,6.46088090913753
4.573,17.1057167497436
4.574,26.6276803935047
4.575,31.2412092246252
4.576,26.2739082551724
4.577,17.5796968996658
4.578,6.49781376692496
4.579,-0.228282481006612
4.58,0.18971536587728
4.581,8.89755456673748
4.582,22.9097795293541
4.583,40.6931631531977
4.584,57.8076597065555
4.585,60.2074617829702
4.586,54.2911585336286
4.587,41.4786654757091
4.588,24.0195427230747
4.589,8.72358211230886
4.59,0.214208812924581
4.591,-0.0255871061211019
4.592,6.81425854225954
4.593,18.2937391638985
4.594,27.1614143078101
4.595,30.3879500404604
4.596,27.4995423050363
4.597,17.5197620500283
4.598,6.55908119980609
4.599,-0.450658103002944
4.6,0.136502857634958
4.601,8.08086908352619
4.602,23.3296812473812
4.603,39.6976968567651
4.604,53.5177382333658
4.605,58.1348738537524
4.606,53.949111808257
4.607,39.1619750228138
4.608,23.9985451974521
4.609,8.14782942990361
4.61,-0.208343188367284
4.611,-0.201858730888488
4.612,7.69737619538786
4.613,17.8654177596076
4.614,29.5006063884626
4.615,31.2077836163788
4.616,26.8105291166936
4.617,17.1985959528475
4.618,5.87395428158863
4.619,-0.515656860697298
4.62,-0.0741776527605089
4.621,9.05067515704222
4.622,23.0264842566922
4.623,44.003101604438
4.624,53.0889308345359
4.625,59.7834075188605
4.626,57.7537846757459
4.627,41.1531809054007
4.628,24.3129016980141
4.629,8.68310041473321
4.63,0.113135412234588
4.631,-0.139932917548182
4.632,7.31559659897616
4.633,18.4647400050016
4.634,27.1202963793347
4.635,32.0767408837972
4.636,27.7696062559794
4.637,18.2569161522267
4.638,6.82167980155908
4.639,-0.338484163719222
4.64,0.397530531958106
4.641,8.37968582176493
4.642,23.2032008116806
4.643,40.0174432003908
4.644,55.7708160604516
4.645,61.636020244893
4.646,53.9310624877349
4.647,40.8559014791395
4.648,22.8798045662518
4.649,8.59010032632459
4.65,-0.211624789082617
4.651,-0.0563773193873054
4.652,7.56225865507747
4.653,18.172818645873
4.654,25.7159841067186
4.655,30.1749433671901
4.656,26.428442486466
4.657,16.5736791982134
4.658,6.28411113847539
4.659,-0.263094108387281
4.66,-0.000958865553791978
4.661,8.48208210545877
4.662,24.7148528184078
4.663,41.9768726763049
4.664,56.5619431541287
4.665,57.6498262306674
4.666,56.6149130544009
4.667,43.0944267644713
4.668,23.3899882227932
4.669,9.32766802097375
4.67,0.512020577992002
4.671,0.191860946084645
4.672,6.76119741626583
4.673,16.7225758840113
4.674,26.1739977475281
4.675,30.1343325782922
4.676,28.0239947167915
4.677,17.0603810375415
4.678,6.3443935958207
4.679,-0.534138314098193
4.68,-0.0898408924381297
4.681,9.45493404225669
4.682,24.7418513167189
4.683,43.5909818462126
4.684,51.8480983355723
4.685,61.0031437399998
4.686,56.3729796740711
4.687,42.4506077376648
4.688,22.8425880277612
4.689,8.64180072401979
4.69,0.274006673265812
4.691,-0.292591061465817
4.692,6.40362084445093
4.693,17.1655223023747
4.694,28.2327816081831
4.695,29.5549265672961
4.696,26.461743497238
4.697,17.1436827442771
4.698,6.12124348440981
4.699,-0.466874902785287
4.7,-0.190725663847082
4.701,8.80688344790587
4.702,26.5136544199941
4.703,42.3531948858867
4.704,54.9033570493887
4.705,59.2550123803747
4.706,52.6124653328092
4.707,42.1532654716723
4.708,23.9272465515612
4.709,8.48649490670521
4.71,-0.287002177766594
4.711,-0.341066216593922
4.712,5.75163141991767
4.713,18.7064386496003
4.714,25.9280576837824
4.715,28.4724932459237
4.716,26.2191087454082
4.717,17.3061967984463
4.718,6.03311262143913
4.719,-0.507110607461807
4.72,0.0166969834522019
4.721,9.16211560619803
4.722,24.9003500886888
4.723,41.0713063257815
4.724,57.7908250608964
4.725,58.5723604228552
4.726,53.179275198782
4.727,41.538214782797
4.728,23.593837848986
4.729,8.54053145671666
4.73,0.0271593825651607
4.731,-0.0867356764971694
4.732,6.4719078003203
4.733,18.3360348796903
4.734,25.2534846154527
4.735,29.4012660520612
4.736,26.3654984003476
4.737,17.8003549602315
4.738,6.58134957281618
4.739,0.0558182026673766
4.74,0.0654411843219726
4.741,9.0438807235102
4.742,23.2843876650349
4.743,42.7635092198353
4.744,55.589218016989
4.745,60.6531042326833
4.746,54.1720712860537
4.747,41.960790275133
4.748,24.9955465858273
4.749,8.08733988180771
4.75,-0.216956080741593
4.751,-0.237278638714662
4.752,6.50089886653372
4.753,17.6045677489728
4.754,26.4375918979113
4.755,30.4630127006776
4.756,24.8749964908044
4.757,16.2562179431663
4.758,6.22020180428867
4.759,-0.465613528432146
4.76,-0.0387355840066485
4.761,9.65028848506719
4.762,24.0876891339379
4.763,40.4433435303497
4.764,55.3129268508099
4.765,61.0620379791957
4.766,58.2651460424506
4.767,41.631962292668
4.768,23.785157269517
4.769,8.30061507883771
4.77,-0.34381459759186
4.771,-0.40161519588241
4.772,6.6012607592264
4.773,17.2714663508332
4.774,26.1382875321702
4.775,30.7103133761157
4.776,26.9864988281138
4.777,16.7973325314349
4.778,6.55868343565912
4.779,0.00862016477854954
4.78,0.325968352874565
4.781,9.1831314780846
4.782,24.6644194759144
4.783,40.6152903644235
4.784,55.6106643397543
4.785,57.3797754579823
4.786,53.9816565271798
4.787,41.2542243912283
4.788,24.2114785066679
4.789,8.65361338568359
4.79,-0.319252945528678
4.791,-0.230169053159811
4.792,6.57119530771685
4.793,16.9307398606841
4.794,27.626647699321
4.795,30.3263498732464
4.796,27.2501434951226
4.797,16.5826481509339
4.798,6.57741832828878
4.799,-0.420120396380303
4.8,0.0376327502096701
4.801,8.77544118435307
4.802,24.6866438703824
4.803,42.9326459486785
4.804,55.9558700474929
4.805,60.4821518551304
4.806,56.9086689565428
4.807,41.1770971327347
4.808,25.0236665727422
4.809,8.73003455292847
4.81,-0.0510693768380251
4.811,-0.592321064884517
4.812,6.94181110330879
4.813,16.6924090276786
4.814,26.9237635227015
4.815,29.6563086264226
4.816,26.0708912604791
4.817,15.9924042413152
4.818,6.52361639798806
4.819,-0.420774967133291
4.82,-0.267509476013108
4.821,9.3800469411063
4.822,24.730581165682
4.823,41.6225263138907
4.824,55.5439386225137
4.825,58.1933360462696
4.826,53.903934735358
4.827,40.5772678858762
4.828,22.8362846751532
4.829,8.2703822243944
4.83,0.157616642219588
4.831,-0.405408934431214
4.832,6.4534679223034
4.833,16.5197906918693
4.834,26.2925967737608
4.835,29.0602695215951
4.836,24.7926745005212
4.837,17.5985967415021
4.838,7.67167457379894
4.839,-0.330125057787869
4.84,-0.100945598044774
4.841,9.07385483034395
4.842,23.2054612904805
4.843,40.9128848928109
4.844,57.1235364463251
4.845,59.5688497699275
4.846,53.2990736416003
4.847,42.0601595715591
4.848,24.5181459039787
4.849,8.26724898996399
4.85,-0.388096398403267
4.851,-0.420706128278343
4.852,6.3534939541141
4.853,17.5847642410085
4.854,27.1977351401601
4.855,31.5880112541124
4.856,26.2984370590038
4.857,16.2645984605398
4.858,6.28820866023552
4.859,-0.179215830760875
4.86,0.450671586007898
4.861,9.05384387801933
4.862,24.580906088425
4.863,40.4146635353716
4.864,55.014558314841
4.865,61.165974966113
4.866,53.1533471582001
4.867,43.7949912923983
4.868,23.154061059651
4.869,8.02993132910916
4.87,0.244454468882286
4.871,-0.303613887499345
4.872,7.41832138455793
4.873,18.4840346480565
4.874,26.8556718487162
4.875,30.7827823181082
4.876,26.5839297821906
4.877,17.6582710539166
4.878,5.51012519263912
4.879,0.172892326392337
4.88,0.0352649409449978
4.881,8.41004868192177
4.882,22.8589442364196
4.883,41.7617523941255
4.884,53.1009986175558
4.885,59.078200594198
4.886,54.8816863408095
4.887,41.5730720951289
4.888,24.1826842274376
4.889,8.84814885504842
4.89,-0.31490630551643
4.891,-0.301179196290069
4.892,6.60908580868973
4.893,17.8653248192578
4.894,27.3210064965067
4.895,30.3036258713322
4.896,26.3011414306732
4.897,16.7227327193071
4.898,6.02892276143991
4.899,-0.44725706345216
4.9,-0.297184369278989
4.901,8.72549633682662
4.902,24.840766753751
4.903,42.162135200896
4.904,53.112200517873
4.905,59.9073205591079
4.906,57.1126293557426
4.907,41.7087164701695
4.908,24.9600587178623
4.909,8.33982517052905
4.91,0.0110665430965923
4.911,-0.329064178979982
4.912,6.27491956087434
4.913,17.2711261851761
4.914,25.637313118164
4.915,31.0261892616607
4.916,25.7054104782238
