0,0.122738375445051
0.001,0.712358252289285
0.002,2.41508820389024
0.003,4.22276492338926
0.004,4.13511872515747
0.005,5.00192486292495
0.006,4.63793176939755
0.007,3.1650087102159
0.008,2.09984301939502
0.009,1.19364378916602
0.01,-0.0424715026966971
0.011,-0.837374464191461
0.012,-1.11933334828654
0.013,-1.24049068243659
0.014,-1.24298405667471
0.015,-1.21268795861805
0.016,-1.20007051060257
0.017,-1.24955178440887
0.018,-1.02113694436926
0.019,-0.616936652817136
0.02,-0.246911402208988
0.021,1.68072835899719
0.022,1.88176742860972
0.023,2.62818961873392
0.024,4.58204308993263
0.025,5.63176407542771
0.026,5.11636443348147
0.027,3.68780550085501
0.028,2.52406918757438
0.029,0.687625469101335
0.03,0.0525721500355339
0.031,-0.78489721956567
0.032,-1.13734336675941
0.033,-1.24932874950439
0.034,-1.24931260687846
0.035,-1.19141726046515
0.036,-1.23900886009688
0.037,-1.24445919523375
0.038,-1.07059926039435
0.039,-0.837251256005104
0.04,-0.063659386718627
0.041,0.863379215789834
0.042,2.28755651941681
0.043,3.49817722533137
0.044,4.31179991383017
0.045,4.9909502740282
0.046,4.46263600052477
0.047,3.95842670422071
0.048,3.54359913621898
0.049,1.22788261320881
0.05,0.0936027011799934
0.051,-0.846693577635792
0.052,-1.1803193766205
0.053,-1.22139620338077
0.054,-1.24475405861376
0.055,-1.2394486569092
0.056,-1.24867771258666
0.057,-1.24508307969017
0.058,-1.07014739902248
0.059,-0.678641475809438
0.06,-0.355793162635812
0.061,0.844816595475078
0.062,1.97962098137208
0.063,3.07216472609134
0.064,4.87263591388132
0.065,4.3454627841191
0.066,4.27226903681226
0.067,3.23422548313319
0.068,2.48025400372874
0.069,1.15867139684154
0.07,-0.222000011624821
0.071,-0.965050677203905
0.072,-1.14019723329921
0.073,-1.24704064980018
0.074,-1.23365328874599
0.075,-1.18661406177008
0.076,-1.18888820181304
0.077,-1.2496372083124
0.078,-1.12648899159818
0.079,-0.655021149491052
0.08,0.23691574042414
0.081,1.06461457207215
0.082,2.96751181792658
0.083,3.10377290320638
0.084,4.60679922303094
0.085,4.63267978791905
0.086,4.32199007812467
0.087,4.0539964702472
0.088,2.14505840669273
0.089,1.40344832404436
0.09,0.108424311753983
0.091,-0.714610497670319
0.092,-1.13271034375609
0.093,-1.24881406643773
0.094,-1.20255633199252
0.095,-1.11960910681494
0.096,-1.21230233023817
0.097,-1.21869042655002
0.098,-1.13689732840283
0.099,-0.664256737213174
0.1,0.216643168672892
0.101,1.015419468849
0.102,2.93250872389569
0.103,2.99518640449674
0.104,4.51164043663984
0.105,4.17699198529985
0.106,4.44179926637423
0.107,3.38055866318133
0.108,2.41571885451037
0.109,1.41770086112204
0.11,-0.187018599975463
0.111,-0.685792955993048
0.112,-1.14318718760792
0.113,-1.24956762262158
0.114,-1.16932972744427
0.115,-1.24655906729534
0.116,-1.20440648666693
0.117,-1.2451781026245
0.118,-1.21438000573384
0.119,-0.892198516714933
0.12,-0.155950803607481
0.121,0.988526576596176
0.122,2.57863019270559
0.123,3.38725967303913
0.124,4.26912591915424
0.125,4.60879742117006
0.126,4.26224304123674
0.127,3.55402871998545
0.128,1.94796977812707
0.129,1.03543932909089
0.13,-0.201279271791527
0.131,-0.715998860330951
0.132,-1.16884139755875
0.133,-1.23768270519289
0.134,-1.17389953000116
0.135,-1.23313913185134
0.136,-1.24989288512573
0.137,-1.21694569617394
0.138,-1.18679974464781
0.139,-0.753041483526345
0.14,0.160011560998718
0.141,1.08411082698719
0.142,2.50093978189643
0.143,4.21341849042184
0.144,4.26432764495211
0.145,4.84787708257777
0.146,4.72197890075149
0.147,3.42304986051069
0.148,2.30221280537278
0.149,1.07499095152961
0.15,0.0593799452181484
0.151,-0.311915345028388
0.152,-1.12211719969498
0.153,-1.24794692021771
0.154,-1.20123179384641
0.155,-1.245521535824
0.156,-1.22942928207067
0.157,-1.24252476635866
0.158,-1.12283903012851
0.159,-0.540285173378324
0.16,0.282934131448563
0.161,0.720645532731622
0.162,2.43581511849622
0.163,2.95569468553609
0.164,4.19967827017601
0.165,4.21177528463542
0.166,4.72637503673663
0.167,3.49199371222757
0.168,2.46548267616768
0.169,0.881759605550611
0.17,0.120195777794172
0.171,-0.790674861397185
0.172,-1.12487950660473
0.173,-1.24967711955335
0.174,-1.18402423605553
0.175,-1.14412793749195
0.176,-1.21076165691201
0.177,-1.23855470618376
0.178,-1.13731973837286
0.179,-0.649845674392889
0.18,0.0239065706679812
0.181,0.824860557121383
0.182,2.18510683657956
0.183,3.3206379262349
0.184,4.25227353171981
0.185,4.90902411308556
0.186,3.93711558333273
0.187,3.5594485702611
0.188,2.49568096252906
0.189,1.04692381191985
0.19,-0.374084452128215
0.191,-0.912121945524636
0.192,-1.16232764630215
0.193,-1.24514221353746
0.194,-1.21584573297678
0.195,-1.18234233148026
0.196,-1.24996772885222
0.197,-1.24925177832408
0.198,-1.21746049678313
0.199,-0.77469051680618
0.2,0.0859957946457976
0.201,1.1769185067852
0.202,2.38660887648895
0.203,3.69075819295149
0.204,4.22380174429641
0.205,4.46253061008877
0.206,4.76055092520854
0.207,3.23306058095505
0.208,2.05230737789623
0.209,0.756273923190547
0.21,0.151683520246263
0.211,-0.695660547165898
0.212,-1.10712510259764
0.213,-1.19215876900581
0.214,-1.23493922612708
0.215,-1.23904604810032
0.216,-1.23336502992601
0.217,-1.2499897433299
0.218,-1.11480674468074
0.219,-0.390471748349285
0.22,-0.0178341164049073
0.221,0.966926897947409
0.222,2.4427514754759
0.223,3.26357947965918
0.224,4.27573003740486
0.225,4.65396447000857
0.226,4.71802213453524
0.227,3.38241911676351
0.228,2.47280115169917
0.229,0.742522333841478
0.23,0.0972829794523962
0.231,-0.98273371770346
0.232,-1.14943375893643
0.233,-1.2466897095733
0.234,-1.24185942859747
0.235,-1.15575183246618
0.236,-1.19100188931647
0.237,-1.2492320081713
0.238,-1.17421425912657
0.239,-0.782675685865398
0.24,-0.350574386195738
0.241,1.4782124193699
0.242,2.43422106358123
0.243,3.46736350070957
0.244,4.21462897770502
0.245,5.49517766386659
0.246,4.36946330061687
0.247,3.59440506568281
0.248,2.16792147286005
0.249,0.923329280041821
0.25,0.0264928759927856
0.251,-0.812767741608148
0.252,-0.977549034711142
0.253,-1.22342640667274
0.254,-1.20346515068878
0.255,-1.19330634565187
0.256,-1.24880925044691
0.257,-1.22191482398341
0.258,-1.08541852359083
0.259,-0.673282256079062
0.26,-0.0896110290733924
0.261,0.961648207205985
0.262,2.4780451402789
0.263,4.11055563380827
0.264,4.7037121420436
0.265,4.36487608542128
0.266,3.91264852663296
0.267,3.31398695393459
0.268,2.11853918838719
0.269,0.961364581504126
0.27,0.152291987745112
0.271,-0.942090558325147
0.272,-1.11140727319073
0.273,-1.24152467964497
0.274,-1.2453310600913
0.275,-1.17899238098475
0.276,-1.22868026595108
0.277,-1.24547089418347
0.278,-1.19335863709022
0.279,-0.817705041794922
0.28,-0.125639338513769
0.281,0.706140842825964
0.282,2.42711244222188
0.283,3.81746555317735
0.284,4.4622346771323
0.285,4.8672399871526
0.286,4.58818532454529
0.287,3.85541251397543
0.288,2.10074450716262
0.289,0.7378197489814
0.29,0.0180555468423351
0.291,-0.720358348386589
0.292,-1.13684114419305
0.293,-1.24603682422994
0.294,-1.22110182537878
0.295,-1.19930889181566
0.296,-1.22506160895386
0.297,-1.22340847177541
0.298,-1.12739703755105
0.299,-0.800946583526791
0.3,-0.196686293554959
0.301,1.64097624217976
0.302,2.25809987324968
0.303,3.67817249936665
0.304,3.73582015759999
0.305,5.24873371096411
0.306,4.67330458115095
0.307,3.44250920983722
0.308,2.61869252018642
0.309,0.94925260783794
0.31,-0.208449994210859
0.311,-0.653284763199422
0.312,-1.19936102035866
0.313,-1.24918498181728
0.314,-1.18163730169221
0.315,-1.17650031535442
0.316,-1.24647077573035
0.317,-1.24978506482988
0.318,-1.06127112341276
0.319,-0.819603793526732
0.32,0.119182575056213
0.321,1.22373327498112
0.322,2.47610722841417
0.323,3.19758331860795
0.324,4.4927321903657
0.325,4.07660437224751
0.326,4.13741745823206
0.327,3.23276434245505
0.328,2.52236204667027
0.329,1.11670329027871
0.33,0.00271199508582489
0.331,-0.795051321478097
0.332,-1.11780403065033
0.333,-1.24754487637586
0.334,-1.22845406573974
0.335,-1.22314186375122
0.336,-1.21414053389921
0.337,-1.22618591936773
0.338,-1.16778126640484
0.339,-0.703783210076699
0.34,0.209945288437677
0.341,1.09844991412425
0.342,1.87887213142824
0.343,3.96131591914293
0.344,4.22819753724726
0.345,5.29119985565801
0.346,5.48386652233164
0.347,3.01416279198505
0.348,2.74439424770358
0.349,1.52593076580042
0.35,0.0790499703057248
0.351,-0.523232636767576
0.352,-0.984282305125515
0.353,-1.24910339189321
0.354,-1.17885663879389
0.355,-1.16448337973757
0.356,-1.21695043196452
0.357,-1.24971689111992
0.358,-1.20806779856409
0.359,-0.703317685424337
0.36,-0.20136284754462
0.361,1.37325357361059
0.362,2.08412125656132
0.363,3.80141434750488
0.364,4.58867422802727
0.365,4.847865315217
0.366,3.68554098005772
0.367,3.90827740988312
0.368,2.54335055181151
0.369,1.36092377102742
0.37,0.177192345439533
0.371,-0.87610312566494
0.372,-1.22019583682736
0.373,-1.24507282653639
0.374,-1.22983350167935
0.375,-1.2154446921378
0.376,-1.23527984149254
0.377,-1.24928076798805
0.378,-1.17200654967692
0.379,-0.90748211573144
0.38,-0.00841820434335755
0.381,0.710572344665544
0.382,3.12067003985595
0.383,3.64903605696794
0.384,4.38283875667825
0.385,4.96280617071292
0.386,5.57216532577139
0.387,3.5410962885208
0.388,2.37378033943236
0.389,1.25153706114229
0.39,-0.0319925751962966
0.391,-0.852655145461275
0.392,-1.15361531518386
0.393,-1.23020384012437
0.394,-1.24596190893261
0.395,-1.24276791503811
0.396,-1.22125278079268
0.397,-1.24597504757854
0.398,-1.06637406037964
0.399,-0.877984800544934
0.4,0.0566799473940067
0.401,1.38204837433134
0.402,2.62015751037784
0.403,3.62606657428656
0.404,4.24054272387145
0.405,5.03051725051851
0.406,4.95132316881713
0.407,4.08203468071277
0.408,2.47771502517948
0.409,0.869363872014477
0.41,-0.0821896091010522
0.411,-0.788259237836843
0.412,-1.23039926674113
0.413,-1.2083852792578
0.414,-1.24932695374754
0.415,-1.24667578052216
0.416,-1.16357913058898
0.417,-1.22645733639076
0.418,-1.21945830556607
0.419,-0.6764466563816
0.42,-0.0470840531076237
0.421,1.24547837877423
0.422,2.18720444940036
0.423,3.37528418035758
0.424,4.75454177008866
0.425,5.67202718872432
0.426,4.51604178787509
0.427,4.5838589278242
0.428,2.86724628712585
0.429,1.2955620862758
0.43,-0.228819931884723
0.431,-0.661408362166616
0.432,-1.18347983547451
0.433,-1.24933309275349
0.434,-1.22605204302243
0.435,-1.24680388941424
0.436,-1.20095764941257
0.437,-1.22365664341624
0.438,-1.18676650599476
0.439,-0.708456121542659
0.44,-0.0349312804274151
0.441,1.45960320647315
0.442,2.39937340579873
0.443,3.7767033636484
0.444,5.32891878725133
0.445,4.5389641617985
0.446,4.7686476325655
0.447,3.50828764372256
0.448,2.11293910004419
0.449,0.906691527628241
0.45,-0.15673478697702
0.451,-0.579300929415453
0.452,-1.19721313938308
0.453,-1.24954505444284
0.454,-1.22588906122723
0.455,-1.14549672538081
0.456,-1.14867492526566
0.457,-1.22821791631517
0.458,-1.15540026504517
0.459,-0.815730087122794
0.46,0.138588812723976
0.461,1.80778514919604
0.462,2.01050942739745
0.463,3.91380670062322
0.464,4.86627414587873
0.465,6.05824991100163
0.466,3.64234325575456
0.467,3.56124545496806
0.468,2.51919040230219
0.469,0.878176179588489
0.47,0.234089143857323
0.471,-0.820796034100385
0.472,-1.1904899758676
0.473,-1.24907556463679
0.474,-1.22346510111706
0.475,-1.13867104137672
0.476,-1.20974577641459
0.477,-1.24999301960352
0.478,-1.06488400950374
0.479,-0.771464955646793
0.48,0.00406085140173509
0.481,1.20884119407062
0.482,2.13288728243839
0.483,3.70259078594226
0.484,4.48024662249145
0.485,5.44478026189267
0.486,4.53184144613309
0.487,3.40373716236922
0.488,2.2103767658431
0.489,1.0588434977879
0.49,0.0536495137644466
0.491,-0.642781665416778
0.492,-1.17272922514906
0.493,-1.2259623894521
0.494,-1.18832432158479
0.495,-1.1990243729794
0.496,-1.19680899381088
0.497,-1.24998166868138
0.498,-1.18879838619303
0.499,-0.838715957912521
0.5,0.107100562100103
0.501,0.806324062251887
0.502,2.44675531415518
0.503,3.83969644639915
0.504,4.04517095638969
0.505,3.87676904122516
0.506,4.89922205929064
0.507,3.09960850646851
0.508,2.75289222148057
0.509,1.40707662907684
0.51,0.201117081361813
0.511,-0.594586524272283
0.512,-1.1255726568179
0.513,-1.23441633562406
0.514,-1.24331345018846
0.515,-1.23175851012412
0.516,-1.24803457265621
0.517,-1.24733453635345
0.518,-1.16294811045869
0.519,-0.749757260401268
0.52,-0.101448964047402
0.521,1.51439762743169
0.522,2.50635124239481
0.523,3.62048955136259
0.524,3.42687655327058
0.525,5.06882759018742
0.526,5.01579678224007
0.527,4.54704766000137
0.528,2.24692719141002
0.529,1.32058118483479
0.53,-0.215132789463097
0.531,-0.808586373259366
0.532,-1.20434117647799
0.533,-1.24338522209692
0.534,-1.24816334283207
0.535,-1.24888689396865
0.536,-1.23885698844439
0.537,-1.2390768186195
0.538,-1.13151889875973
0.539,-0.769100061106145
0.54,0.0198694131215348
0.541,1.23115740236417
0.542,2.57391522409399
0.543,3.68714437505096
0.544,4.73958430923969
0.545,4.6189110803802
0.546,4.23336967784739
0.547,3.57822122431844
0.548,2.28945401642646
0.549,1.68727516592809
0.55,0.0348759782020591
0.551,-0.801656058012019
0.552,-1.06782093885728
0.553,-1.2399743901036
0.554,-1.23675682715527
0.555,-1.22901294586315
0.556,-1.24835447928109
0.557,-1.20664523938061
0.558,-1.18760561508247
0.559,-0.805724799361789
0.56,-0.038448995672344
0.561,0.934736172324642
0.562,3.00133718789792
0.563,4.22403529548365
0.564,4.5194973612341
0.565,4.32944360697438
0.566,4.74600082353292
0.567,3.11847907045008
0.568,1.95969279307138
0.569,0.865276803446722
0.57,0.186574471626678
0.571,-0.633329600673861
0.572,-1.15494970901639
0.573,-1.24818612610403
0.574,-1.2014155845763
0.575,-1.12443836048318
0.576,-1.24145161698857
0.577,-1.24580704791417
0.578,-1.22535157727322
0.579,-0.727162368843048
0.58,0.241379400055776
0.581,1.4488185190399
0.582,2.67577265524043
0.583,2.93832826574299
0.584,4.57386882326118
0.585,4.91233853143719
0.586,4.64545513439671
0.587,4.12096373536264
0.588,2.28626681122922
0.589,1.53337635235026
0.59,-0.126134330329266
0.591,-0.828893544085554
0.592,-1.07015004654792
0.593,-1.24990732877182
0.594,-1.19380708716703
0.595,-1.23353629636197
0.596,-1.23166166517549
0.597,-1.24706937485319
0.598,-1.18443880828289
0.599,-0.7395458650914
0.6,0.0365657185983555
0.601,1.09940450250725
0.602,2.77005798012871
0.603,3.78765006843669
0.604,4.24279482279243
0.605,4.53187998994343
0.606,4.68491860998601
0.607,4.6720762133092
0.608,2.56258514462325
0.609,1.44861151786257
0.61,-0.162346902391644
0.611,-0.782732397386949
0.612,-1.14607899813252
0.613,-1.24984653100974
0.614,-1.20133735653189
0.615,-1.1390760761729
0.616,-1.24433701054854
0.617,-1.24999424320685
0.618,-0.996247556188076
0.619,-0.79976825331003
0.62,-0.264206906207955
0.621,1.29670363270569
0.622,2.23809138058433
0.623,3.47874932444574
0.624,4.29356218577338
0.625,5.31162553758845
0.626,4.49306824565721
0.627,3.53258590399835
0.628,2.13027149620024
0.629,1.31922178089521
0.63,-0.0538357289952619
0.631,-0.895838168563199
0.632,-1.13955103737877
0.633,-1.23830162247808
0.634,-1.20593087091434
0.635,-1.14970178712055
0.636,-1.22089183040079
0.637,-1.24533917748656
0.638,-1.13636117235689
0.639,-0.757947309379695
0.64,0.0173390372399867
0.641,0.837056341417896
0.642,1.92065276014595
0.643,3.64026711803688
0.644,4.97922928030231
0.645,4.29357881427144
0.646,5.00303614398183
0.647,3.85769095864355
0.648,2.22945038698069
0.649,1.17278901083379
0.65,-0.107544041203926
0.651,-0.866755609403485
0.652,-1.19708136714769
0.653,-1.24993035133582
0.654,-1.24139735243009
0.655,-1.21147690513372
0.656,-1.21568103244868
0.657,-1.24648761104323
0.658,-1.05310124863909
0.659,-0.415978859838877
0.66,-0.0990573235832909
0.661,1.17803921880346
0.662,2.20025244339017
0.663,3.71114243631253
0.664,4.26507495134556
0.665,4.96996389014103
0.666,4.77992035899373
0.667,4.20590386477886
0.668,1.84004792039041
0.669,1.32857699040359
0.67,-0.199910626459822
0.671,-0.309597468323885
0.672,-1.09643158926864
0.673,-1.24998293722469
0.674,-1.2471261840371
0.675,-1.20453294940494
0.676,-1.24292028509994
0.677,-1.24736078504939
0.678,-1.15231519648286
0.679,-0.483523734732601
0.68,0.056150360017882
0.681,0.668032140920768
0.682,2.27421424717102
0.683,3.39187178823532
0.684,4.02852319722684
0.685,5.24400468589444
0.686,3.60305432360216
0.687,3.3312618620561
0.688,2.6046964240911
0.689,0.648840812938868
0.69,-0.106800794731292
0.691,-0.826804810108802
0.692,-1.05972927354359
0.693,-1.24796638362688
0.694,-1.21981009425142
0.695,-1.14481198164443
0.696,-1.17644213055014
0.697,-1.24999727472395
0.698,-1.22957883428082
0.699,-0.629564660288514
0.7,0.233719709951147
0.701,1.41790966565451
0.702,2.28899174528372
0.703,3.67038211262545
0.704,3.79105777315811
0.705,4.38642531715271
0.706,4.25695038700464
0.707,4.25040684181578
0.708,2.20615380114642
0.709,0.837999836648427
0.71,-0.0232760720797748
0.711,-0.773425554471597
0.712,-1.15292436543476
0.713,-1.24999943183092
0.714,-1.22614661094108
0.715,-1.23589613361317
0.716,-1.14351938865336
0.717,-1.24378579280465
0.718,-1.11503627570603
0.719,-1.00277380189136
0.72,-0.116867870516233
0.721,0.887094821709609
0.722,2.34889771190955
0.723,3.65567486419361
0.724,4.06316229634896
0.725,4.2725676909913
0.726,3.83063553007436
0.727,2.89667594664363
0.728,2.43989027311749
0.729,0.938898842209031
0.73,0.0771018556077525
0.731,-0.757950287137889
0.732,-1.24386746092902
0.733,-1.24833821373686
0.734,-1.21005678382053
0.735,-1.19973614954139
0.736,-1.18814252170289
0.737,-1.24456145516914
0.738,-1.10587013426176
0.739,-0.863649501741255
0.74,-0.0111413738844469
0.741,1.02608643276978
0.742,1.89825712813028
0.743,3.3733665311154
0.744,4.57558675411752
0.745,4.94013508313715
0.746,4.46516450570163
0.747,3.7246757958176
0.748,2.87289281732082
0.749,1.39135582535608
0.75,-0.217958643405342
0.751,-0.870997595471808
0.752,-1.16223152004286
0.753,-1.24244856059353
0.754,-1.22766955438667
0.755,-1.21618959542552
0.756,-1.1943388054074
0.757,-1.24989703912853
0.758,-1.14153034341204
0.759,-0.87291891395949
0.76,-0.0224098721014439
0.761,1.0596652855961
0.762,1.97529699838134
0.763,4.712418078113
0.764,4.30140650587941
0.765,4.82530837322101
0.766,4.54570082920821
0.767,3.27847939216256
0.768,2.39216264566063
0.769,1.11319868378476
0.77,0.182912839540916
0.771,-0.8427573863627
0.772,-1.10785947682418
0.773,-1.24327801656423
0.774,-1.23485376386182
0.775,-1.23412121741993
0.776,-1.12689691385278
0.777,-1.23750014968289
0.778,-1.09322199999231
0.779,-0.895583873095146
0.78,-0.0242317527569511
0.781,0.958799896500697
0.782,2.62040401888115
0.783,4.11798233054002
0.784,4.8804655619851
0.785,4.19451649377214
0.786,4.21022443818853
0.787,4.52855917807364
0.788,2.30349263410916
0.789,1.70031492054769
0.79,-0.144109370655247
0.791,-0.787599562605664
0.792,-1.14864679448121
0.793,-1.24998103287434
0.794,-1.24964321486201
0.795,-1.19175476390265
0.796,-1.18936284349869
0.797,-1.24352219256432
0.798,-1.1054119916273
0.799,-0.736502096762421
0.8,0.158378582643587
0.801,1.30380024499606
0.802,1.76198278720663
0.803,3.07644522244831
0.804,4.74381261824094
0.805,4.35712777405557
0.806,3.54804826616336
0.807,3.64047050659392
0.808,2.69969176333593
0.809,1.327862651997
0.81,0.20305051477209
0.811,-0.566186881504332
0.812,-1.06483322370101
0.813,-1.22339128636501
0.814,-1.24437322462897
0.815,-1.17864704445892
0.816,-1.19465377606264
0.817,-1.24947532733551
0.818,-1.07741306072222
0.819,-0.728003699156014
0.82,-0.359510285935357
0.821,1.07066101885662
0.822,2.11395837721177
0.823,3.97453577193432
0.824,4.2092763627755
0.825,6.259190640677
0.826,4.42262119127941
0.827,3.38138468154277
0.828,2.84056480815114
0.829,0.794997033383645
0.83,0.173175937028304
0.831,-0.818632204268278
0.832,-1.14028696923811
0.833,-1.24305896327364
0.834,-1.22022136758108
0.835,-1.22323895750447
0.836,-1.21488416685477
0.837,-1.24914979772063
0.838,-1.22093611417493
0.839,-0.741123000757824
0.84,0.14566011194082
0.841,1.39568106959435
0.842,2.67117865742721
0.843,3.83283347958338
0.844,5.15723901946389
0.845,5.46993179454986
0.846,4.76481097360168
0.847,3.37251438061892
0.848,2.85477424370109
0.849,1.39926287982584
0.85,-0.240562878249527
0.851,-0.81065236713739
0.852,-1.10380700057882
0.853,-1.24967239349741
0.854,-1.24116991507845
0.855,-1.15680307176024
0.856,-1.24539161876631
0.857,-1.24774767272489
0.858,-1.20135179523509
0.859,-0.599468328527685
0.86,0.187387594429947
0.861,0.948869094271403
0.862,2.8438667100861
0.863,3.97049918140736
0.864,4.33876072534277
0.865,4.89850272405327
0.866,3.86366930795059
0.867,3.44337782968591
0.868,2.7574603199077
0.869,1.03511528522487
0.87,0.0847167055903206
0.871,-0.698944846888221
0.872,-1.14162030313291
0.873,-1.2483729102051
0.874,-1.23878217904276
0.875,-1.21822855752811
0.876,-1.10947754407855
0.877,-1.2499287986272
0.878,-1.20240497417272
0.879,-0.787270321526517
0.88,-0.0266907803211893
0.881,1.16586315561388
0.882,1.84841001391035
0.883,3.45997448060208
0.884,4.0724185348253
0.885,4.99698664956361
0.886,4.45698365764781
0.887,3.79520093210465
0.888,2.2008428659868
0.889,1.62952216640922
0.89,-0.138955291524729
0.891,-0.691662383843746
0.892,-1.14209773616086
0.893,-1.24584260100238
0.894,-1.20043942907962
0.895,-1.24427991086716
0.896,-1.23369561162853
0.897,-1.24882487887472
0.898,-1.06760225466824
0.899,-0.654067079245096
0.9,-0.354848545384963
0.901,1.31912392101609
0.902,2.15514818954468
0.903,4.43601108993568
0.904,5.13584824078619
0.905,4.89267353448824
0.906,5.21584894810457
0.907,3.54600731808228
0.908,2.50254914325486
0.909,1.32798244529833
0.91,0.00120864608847407
0.911,-0.649658086399773
0.912,-1.13402254044222
0.913,-1.24886037398554
0.914,-1.23672005632829
0.915,-1.19219658922593
0.916,-1.20692930912928
0.917,-1.24593606427284
0.918,-1.18650630684582
0.919,-0.914354830547553
0.92,0.0623732191004158
0.921,1.71650637260181
0.922,2.47968682163192
0.923,3.16910530939945
0.924,4.65067774777545
0.925,5.70708318253792
0.926,4.5175544497547
0.927,4.5788411243488
0.928,2.47563374560364
0.929,1.0703060589544
0.93,-0.0277962028133647
0.931,-0.587205533639446
0.932,-1.11263384916221
0.933,-1.24951394601299
0.934,-1.24962618487992
0.935,-1.21357158447533
0.936,-1.21668329355007
0.937,-1.24979982616416
0.938,-1.1834344029781
0.939,-0.534629916155096
0.94,0.27308208893599
0.941,1.28682691545384
0.942,2.55535869511387
0.943,3.49697972760005
0.944,4.48087460632847
0.945,4.85119152828797
0.946,4.52298381436234
0.947,4.03139565943314
0.948,3.15505938058781
0.949,1.02561573385219
0.95,0.084810548164938
0.951,-0.794635976290485
0.952,-1.13277203862208
0.953,-1.24999665206481
0.954,-1.2390956345813
0.955,-1.23352339859367
0.956,-1.23485584522978
0.957,-1.24700111644228
0.958,-1.08151834241133
0.959,-0.916217375271091
0.96,0.0372358694335507
0.961,1.67400525437721
0.962,1.99013965847027
0.963,3.8791689074156
0.964,3.88369112554139
0.965,4.50958108191917
0.966,4.50831288272087
0.967,3.14200908458721
0.968,2.43953039183866
0.969,1.0828656260227
0.97,-0.0973745834429187
0.971,-0.845380093846242
0.972,-1.10347372081864
0.973,-1.24887515050933
0.974,-1.23515566449763
0.975,-1.17931654883167
0.976,-1.24302633181522
0.977,-1.2468145317782
0.978,-1.11688722157806
0.979,-0.720575863947504
0.98,-0.173417365968913
0.981,1.07230467445199
0.982,2.31288335786686
0.983,4.22351376202237
0.984,5.29149917875638
0.985,5.17969604111441
0.986,4.79122600469756
0.987,4.0073125388011
0.988,3.25245765441434
0.989,0.284500026382547
0.99,-0.0158037798306823
0.991,-0.751710162941353
0.992,-1.13392552757446
0.993,-1.2423593773862
0.994,-1.23276477636436
0.995,-1.20508114421528
0.996,-1.2379525940387
0.997,-1.23840741070825
0.998,-1.14281740895883
0.999,-0.786568800266439
1,-0.0258573875277778
1.001,1.24362874993306
1.002,1.90033876526453
1.003,3.28422406343982
1.004,4.58700425866524
1.005,4.59403029778994
1.006,4.23856025415651
1.007,3.07397360830597
1.008,2.20514586852717
1.009,1.28113640065214
1.01,-0.089877767067289
1.011,-0.689618631050197
1.012,-1.03118141592545
1.013,-1.24873937893301
1.014,-1.24181419792924
1.015,-1.17967424472781
1.016,-1.24809607043863
1.017,-1.24516795993265
1.018,-1.13729253953871
1.019,-1.11507467327921
1.02,-0.0211713134128604
1.021,0.984354259125077
1.022,2.11381975767702
1.023,2.83638304774892
1.024,5.00938945483657
1.025,5.05366508375993
1.026,4.52351971577553
1.027,3.03784140238723
1.028,2.22926684447729
1.029,0.864064188633511
1.03,0.00594731863026316
1.031,-0.655972041489679
1.032,-1.08014806958225
1.033,-1.24582467837763
1.034,-1.23814107055436
1.035,-1.17347046272562
1.036,-1.19822243348277
1.037,-1.2392123862212
1.038,-1.1689172596883
1.039,-0.530494090380871
1.04,0.108657634991801
1.041,0.82546019317591
1.042,2.35792359451157
1.043,3.76247844628719
1.044,4.87215283664978
1.045,4.72519802288096
1.046,4.90056075765998
1.047,3.73264324383523
1.048,2.74352706326016
1.049,1.21117032519489
1.05,0.183544736088704
1.051,-0.795893830427431
1.052,-0.915622659791331
1.053,-1.24910173783036
1.054,-1.23970263870679
1.055,-1.22232176553585
1.056,-1.20226042468969
1.057,-1.24976943857166
1.058,-1.12289739626627
1.059,-0.628772840253312
1.06,0.0195521743845497
1.061,0.630740832183173
1.062,2.60374307761998
1.063,3.45311933414529
1.064,5.07141974840589
1.065,4.2147784781638
1.066,3.98453595732558
1.067,4.20495553469223
1.068,2.4952403472982
1.069,1.01515180943781
1.07,0.0142427986695779
1.071,-0.702256319160288
1.072,-1.01743933359393
1.073,-1.24969023074495
1.074,-1.19075144474967
1.075,-1.16093969351064
1.076,-1.23824836787221
1.077,-1.24480060860471
1.078,-1.24185226974011
1.079,-0.611448581975147
1.08,-0.158434049568601
1.081,0.822635730020978
1.082,1.74513947468712
1.083,3.71035246796703
1.084,4.73292273534019
1.085,4.72947698287615
1.086,3.90592115684021
1.087,3.45293124665238
1.088,2.58402436028884
1.089,1.11094563934473
1.09,0.141583479471457
1.091,-0.583254652348783
1.092,-1.12320983351323
1.093,-1.24605168161291
1.094,-1.24363747376228
1.095,-1.18431771991661
1.096,-1.21550340257183
1.097,-1.24706164298622
1.098,-1.13570073854275
1.099,-0.79467615269333
1.1,0.342345326747632
1.101,1.08199572922135
1.102,2.62417473804274
1.103,4.08922516239324
1.104,4.8000367318895
1.105,5.54452555279851
1.106,4.2927391121728
1.107,3.26368191319806
1.108,2.33788599938835
1.109,1.36786734026903
1.11,-0.0673272393139989
1.111,-0.626072246673164
1.112,-1.15385953701989
1.113,-1.24686824397982
1.114,-1.24801250166632
1.115,-1.10842790601437
1.116,-1.24987982024878
1.117,-1.24302549058202
1.118,-1.12137170347328
1.119,-0.798840237135325
1.12,-0.0498331545021453
1.121,0.864287896495223
1.122,2.36874784216716
1.123,3.40529415774404
1.124,4.45058834424016
1.125,4.3532381994757
1.126,4.64291032155115
1.127,3.52710945014113
1.128,2.64441811400691
1.129,1.04022462314726
1.13,-0.287180233024291
1.131,-0.640564972045269
1.132,-1.212626424202
1.133,-1.24992970108738
1.134,-1.18921178006494
1.135,-1.22990406530274
1.136,-1.20882091923362
1.137,-1.22634884116697
1.138,-1.1654793238054
1.139,-0.650883218303039
1.14,-0.146022292790949
1.141,1.23953317730479
1.142,2.73520013340378
1.143,3.16341132305698
1.144,4.63567190144671
1.145,4.1392849100208
1.146,4.64031341497048
1.147,3.37038436083377
1.148,2.74250624373189
1.149,1.22673576828651
1.15,0.140520745062426
1.151,-0.759029967772272
1.152,-1.09162112162926
1.153,-1.21771417638236
1.154,-1.2421284830169
1.155,-1.23227349850786
1.156,-1.2349804625594
1.157,-1.24991227173127
1.158,-1.18016837829886
1.159,-0.923690138734156
1.16,0.2466629877774
1.161,1.12496855249391
1.162,2.1186513991959
1.163,3.97333123610377
1.164,5.01197240062178
1.165,4.11684249609351
1.166,5.96197636624935
1.167,3.77488117260323
1.168,2.29700315996021
1.169,0.755879625190434
1.17,-0.16251621145107
1.171,-0.929455678860698
1.172,-1.05799313324487
1.173,-1.24934573381322
1.174,-1.24151284303743
1.175,-1.22592658521532
1.176,-1.23883589918344
1.177,-1.23183334072458
1.178,-1.1208742157902
1.179,-0.91492819811439
1.18,0.404654258190725
1.181,0.947510420708271
1.182,2.074881012192
1.183,3.37286523708319
1.184,4.21777574436312
1.185,4.7490328756533
1.186,3.9042853782414
1.187,4.33952386107351
1.188,2.63687270174958
1.189,1.08197822348323
1.19,0.309908636443568
1.191,-0.908979611783399
1.192,-0.974286084200545
1.193,-1.23166696980559
1.194,-1.22558503067685
1.195,-1.23666374284096
1.196,-1.24232427685641
1.197,-1.24934484968106
1.198,-1.17984338228657
1.199,-0.787539629818325
1.2,-0.0367022482945872
1.201,0.665981234994215
1.202,2.34385948894368
1.203,3.19838027960357
1.204,3.72534107762945
1.205,5.25301393977433
1.206,4.50580252106302
1.207,3.37421951866186
1.208,2.57535567734147
1.209,1.4485590136086
1.21,-0.0893887087010834
1.211,-0.824342624389929
1.212,-1.1113632996764
1.213,-1.22588063762489
1.214,-1.24795951223028
1.215,-1.20659950834235
1.216,-1.21761573492369
1.217,-1.24747039863514
1.218,-1.1839222075525
1.219,-1.01797313023899
1.22,0.145599707433769
1.221,1.20203378290342
1.222,2.4903631171785
1.223,3.60152852241255
1.224,4.22963152917716
1.225,4.49092080294378
1.226,5.11774676124377
1.227,3.73000819471778
1.228,1.30754617216465
1.229,1.05443842498987
1.23,0.0926608381072712
1.231,-0.611122300364487
1.232,-1.07361757519429
1.233,-1.24732871822967
1.234,-1.22268085374494
1.235,-1.22125333820274
1.236,-1.19122377580707
1.237,-1.23805275735582
1.238,-1.06407224640423
1.239,-0.767750079968244
1.24,-0.19148848134512
1.241,0.999500329173013
1.242,2.63642964812161
1.243,3.52534411671224
1.244,4.408715369383
1.245,5.19581699466775
1.246,5.25275383987701
1.247,3.57807355258234
1.248,2.25509207334406
1.249,0.806118991778887
1.25,-0.236954167031962
1.251,-1.09451814277138
1.252,-0.959907329157629
1.253,-1.24928926227944
1.254,-1.22865141584801
1.255,-1.12728226884635
1.256,-1.21173115920905
1.257,-1.24999458673693
1.258,-1.00644905620272
1.259,-0.656603978986721
1.26,-0.0164671475571172
1.261,1.28099677187693
1.262,2.7863712039654
1.263,3.19359422001807
1.264,4.46463717755345
1.265,4.509463000674
1.266,4.59276490287525
1.267,3.36838219914474
1.268,2.29022601413124
1.269,1.09299451708952
1.27,0.171120571503768
1.271,-0.646268020826743
1.272,-1.14001145355929
1.273,-1.21226152076999
1.274,-1.23144174675986
1.275,-1.20801918622345
1.276,-1.17868276825849
1.277,-1.248910824648
1.278,-1.19420190192064
1.279,-0.788324973604942
1.28,-0.0176950349559984
1.281,1.31373315688833
1.282,2.48905633300134
1.283,3.53522769732018
1.284,3.69611696390318
1.285,4.71700247123934
1.286,4.52047302001968
1.287,3.83568924583623
1.288,2.55015138254667
1.289,0.543919109499183
1.29,0.0760847877264073
1.291,-0.758101107827493
1.292,-1.18170523006378
1.293,-1.23233892026803
1.294,-1.22945391443626
1.295,-1.24260850045895
1.296,-1.23518778860716
1.297,-1.19758175697502
1.298,-1.18848997120941
1.299,-0.735582325503548
1.3,-0.403439640954208
1.301,0.984059468805819
1.302,2.15032492465343
1.303,3.7228534770826
1.304,5.42110053439997
1.305,4.48418632651777
1.306,4.53299304040847
1.307,3.41298778980734
1.308,2.17808296436495
1.309,1.06620209262919
1.31,0.107106190511542
1.311,-0.907932301050834
1.312,-1.15041734848547
1.313,-1.24986836892665
1.314,-1.14826995465308
1.315,-1.19945731689561
1.316,-1.19597771419096
1.317,-1.24999701326527
1.318,-1.13907031819125
1.319,-0.772117643190387
1.32,-0.00998342467678365
1.321,1.38439147567705
1.322,2.06408514828152
1.323,3.12766670838724
1.324,4.47418669446164
1.325,5.9762743812004
1.326,4.67570866348411
1.327,3.98919950103658
1.328,3.10702271346948
1.329,0.827953674819625
1.33,0.0358126177825125
1.331,-0.587992916541953
1.332,-1.21104452779797
1.333,-1.24885372752922
1.334,-1.21820767650071
1.335,-1.2154606839154
1.336,-1.23007981387836
1.337,-1.24838946786937
1.338,-1.22086094170619
1.339,-0.714703153594082
1.34,0.1024012864782
1.341,1.49289782527363
1.342,2.72090504455976
1.343,3.05612073025567
1.344,3.81757926745786
1.345,4.95683338074029
1.346,4.55665493284194
1.347,3.99087465773021
1.348,2.47318302590053
1.349,0.862202265444491
1.35,-0.0587161950422185
1.351,-0.806340608752639
1.352,-1.10618491131827
1.353,-1.23560252051951
1.354,-1.15663542570793
1.355,-1.13660141383889
1.356,-1.228369249022
1.357,-1.20717609579479
1.358,-1.14353171853591
1.359,-0.918086222049006
1.36,0.0881362286177386
1.361,0.742345585024936
1.362,2.63684033111031
1.363,4.05576737733183
1.364,4.58082296374532
1.365,4.58386916377742
1.366,4.77633900958778
1.367,4.30375013406911
1.368,2.41352113872613
1.369,1.33930168578575
1.37,-0.203853082106765
1.371,-0.794039295794214
1.372,-1.22289638798797
1.373,-1.24921163088459
1.374,-1.0761141135971
1.375,-1.17247302277954
1.376,-1.23530736429495
1.377,-1.24291319634751
1.378,-1.07611770526559
1.379,-0.78930870262978
1.38,-0.0418606141803265
1.381,1.0889250327792
1.382,2.72081119753572
1.383,3.57404030176278
1.384,4.51395581805027
1.385,4.38362202849824
1.386,4.61661822833766
1.387,2.3716205605347
1.388,2.27344030844237
1.389,0.941027384870616
1.39,-0.268012481006228
1.391,-0.640426137684516
1.392,-1.12861731997542
1.393,-1.24029187353454
1.394,-1.21845931123627
1.395,-1.17211152476834
1.396,-1.24907644779848
1.397,-1.24984258620472
1.398,-1.20169053412472
1.399,-0.412397819558531
1.4,0.0811116486640748
1.401,0.850686910176217
1.402,2.58988843958199
1.403,3.52159078520849
1.404,4.35509779253864
1.405,4.55502671540423
1.406,4.91117085501775
1.407,3.5158161708269
1.408,2.49679401937817
1.409,1.30054530410661
1.41,0.173268461554569
1.411,-0.51962714363036
1.412,-1.17358315527356
1.413,-1.23789473905543
1.414,-1.21231895829367
1.415,-1.24456861674442
1.416,-1.22317619128385
1.417,-1.22371782488304
1.418,-1.01296596622397
1.419,-0.811553968898482
1.42,-0.0569307549640163
1.421,0.760988314096762
1.422,2.45187461802922
1.423,3.5479288723942
1.424,3.92310599750589
1.425,4.89564734315326
1.426,5.10946281033702
1.427,3.0632345147678
1.428,2.30446113179287
1.429,0.929008694900276
1.43,-0.0473826062363172
1.431,-0.663604016979388
1.432,-0.98811416651324
1.433,-1.24739294995304
1.434,-1.22293643297059
1.435,-1.14380717751687
1.436,-1.20252511793164
1.437,-1.23305997428166
1.438,-1.11947710883291
1.439,-0.492149385249704
1.44,0.186715960524829
1.441,1.02866925818754
1.442,2.86208079515947
1.443,3.5685325014466
1.444,4.76694777099095
1.445,5.03995136793747
1.446,4.29699732912076
1.447,3.77133615345435
1.448,2.59440467846163
1.449,1.65033426987994
1.45,-0.130412841127648
1.451,-0.523367858185828
1.452,-1.21691133738345
1.453,-1.24996931743643
1.454,-1.14988509745751
1.455,-1.19856329292785
1.456,-1.2421525192215
1.457,-1.245798606839
1.458,-1.11464222721643
1.459,-0.793767605436055
1.46,0.0563371085083988
1.461,1.16246650456245
1.462,2.31827891543246
1.463,2.81093181181199
1.464,3.97171634135847
1.465,5.16936360157377
1.466,4.4983591771087
1.467,3.75865305488465
1.468,2.30554685349445
1.469,1.29913934344692
1.47,-0.179877257024776
1.471,-0.739038632443563
1.472,-1.10077362571546
1.473,-1.24491695240844
1.474,-1.24814115878319
1.475,-1.24028541977455
1.476,-1.20805375258054
1.477,-1.24821669487428
1.478,-1.18281737638036
1.479,-0.658620437847151
1.48,0.364820980034576
1.481,1.10719468506489
1.482,2.57080138175108
1.483,3.90615827655995
1.484,4.69193635035368
1.485,5.18352764505781
1.486,4.19761891407997
1.487,3.2532903326
1.488,2.06640042056707
1.489,0.834597235433454
1.49,0.438248897142864
1.491,-0.773477498173671
1.492,-1.0225763703037
1.493,-1.23032501968038
1.494,-1.24139521765859
1.495,-1.15093230761595
1.496,-1.22763488297876
1.497,-1.2496677940352
1.498,-1.18376028822052
1.499,-0.876561184567155
1.5,-0.209067744968149
1.501,0.724106162928388
1.502,3.00377121066946
1.503,4.02611353351547
1.504,4.2602909906695
1.505,5.42828554873204
1.506,4.33109534651339
1.507,2.95082753668545
1.508,2.36693090848882
1.509,0.529098680092132
1.51,-0.191807727554097
1.511,-0.845343973133052
1.512,-1.15936609145466
1.513,-1.24993638740844
1.514,-1.15632720172571
1.515,-1.1910534421501
1.516,-1.14236069664887
1.517,-1.23585807310861
1.518,-1.15461814316626
1.519,-0.673006475483802
1.52,0.217162440640398
1.521,1.08599436354638
1.522,2.65836565273102
1.523,3.70265300947415
1.524,4.37174697339414
1.525,4.70604955286758
1.526,3.95225375625656
1.527,3.1592942852995
1.528,2.37687298223321
1.529,1.05292109140477
1.53,0.224744694081244
1.531,-0.691795521941951
1.532,-1.07613817533783
1.533,-1.23972663243158
1.534,-1.24997932526326
1.535,-1.18052531416663
1.536,-1.19632884245283
1.537,-1.2452581005171
1.538,-1.23913460513471
1.539,-0.535835830956133
1.54,-0.0442214616702105
1.541,1.25222602014268
1.542,2.45246070379215
1.543,3.44059992168596
1.544,4.78478961277024
1.545,5.57433861519912
1.546,4.33093319212223
1.547,4.24751110218683
1.548,1.99875935377052
1.549,1.267085677067
1.55,-0.184628689287951
1.551,-0.710455320077305
1.552,-1.18208431306356
1.553,-1.23448387671232
1.554,-1.24115036308516
1.555,-1.0911437568054
1.556,-1.22633566174261
1.557,-1.2250331978842
1.558,-1.18857031684313
1.559,-0.771528236232223
1.56,0.216854332495931
1.561,0.991755820740677
1.562,2.160517516793
1.563,3.56120491676067
1.564,4.27539400990134
1.565,4.91255580819701
1.566,4.18616644454216
1.567,3.26128026733273
1.568,2.16660003836823
1.569,1.09783071223472
1.57,0.35676731200935
1.571,-0.563122605002494
1.572,-1.1430216257034
1.573,-1.24999944186286
1.574,-1.22688947089462
1.575,-1.21573916034375
1.576,-1.24897763731294
1.577,-1.22291470694895
1.578,-1.07115989698006
1.579,-0.719148716371878
1.58,0.145378434142727
1.581,0.96962394257761
1.582,2.41798934378988
1.583,3.2658331165006
1.584,5.26747752579027
1.585,4.554390781064
1.586,3.88179936374529
1.587,3.4505816510258
1.588,2.88457686160187
1.589,1.02894818795446
1.59,0.322288989558738
1.591,-0.865414145103712
1.592,-1.19868263900067
1.593,-1.24847859749702
1.594,-1.23178274520485
1.595,-1.20251723487159
1.596,-1.21873843518864
1.597,-1.23988760418833
1.598,-1.01197203096657
1.599,-0.858207033959652
1.6,0.15488792417669
1.601,0.881759908576321
1.602,2.48142951438586
1.603,3.29917003455753
1.604,4.71022891025128
1.605,4.65637285240175
1.606,5.00424790600787
1.607,3.74342005235004
1.608,1.79570869248222
1.609,1.07603887089934
1.61,0.00894393232436766
1.611,-0.59075942322586
1.612,-1.12145331498748
1.613,-1.22866843794328
1.614,-1.24812515462716
1.615,-1.16735996231311
1.616,-1.19717511931696
1.617,-1.22648373979036
1.618,-1.11982333995417
1.619,-0.991191767815605
1.62,-0.24983031326277
1.621,1.33927866695389
1.622,2.43584682297005
1.623,3.59797480610573
1.624,4.33996424297547
1.625,4.12077262506187
1.626,4.26367962345922
1.627,3.5824773307918
1.628,2.29851796512418
1.629,1.2177465312614
1.63,-0.146791070690534
1.631,-0.810428539139989
1.632,-1.08467568991607
1.633,-1.24988415809833
1.634,-1.1781961178475
1.635,-1.09074153935734
1.636,-1.23677980682293
1.637,-1.24908677432417
1.638,-1.19385744401756
1.639,-0.649762607583299
1.64,-0.125009539257764
1.641,0.961462709665746
1.642,2.37355192586008
1.643,3.49957518121366
1.644,3.97282605335935
1.645,4.7490470858229
1.646,4.83080167006424
1.647,3.73075477114812
1.648,2.80125044670526
1.649,1.45185140183309
1.65,-0.11143495682558
1.651,-0.82631189437583
1.652,-1.18138437582879
1.653,-1.24753981370201
1.654,-1.21184420501563
1.655,-1.17875565876795
1.656,-1.24676839908605
1.657,-1.24485915244397
1.658,-1.09199942857597
1.659,-0.650076719339083
1.66,-0.274515540723986
1.661,1.19193053952954
1.662,1.77268619490897
1.663,4.10191886955995
1.664,4.89144809951031
1.665,4.32382103743134
1.666,4.53433347765946
1.667,3.30047089769036
1.668,1.81699859053706
1.669,1.04671350378655
1.67,-0.0446081798825488
1.671,-0.609797269748194
1.672,-1.19469886563265
1.673,-1.22088178428695
1.674,-1.20169330535925
1.675,-1.23178465297889
1.676,-1.24950795402983
1.677,-1.24740403874796
1.678,-1.1400292191072
1.679,-0.620656482875697
1.68,0.0655181474490065
1.681,0.778919948200867
1.682,2.37906723818279
1.683,3.34000906190266
1.684,4.07872554773024
1.685,5.27189022762691
1.686,4.47570789706006
1.687,2.55655563932909
1.688,2.19126378575526
1.689,1.00520916486789
1.69,0.0807663652143756
1.691,-0.823605240172503
1.692,-1.15708977460786
1.693,-1.24981741757892
1.694,-1.24909667119051
1.695,-1.24882056066471
1.696,-1.23453935579115
1.697,-1.24991347143115
1.698,-1.12321630722202
1.699,-0.636996529664096
1.7,-0.134730656495783
1.701,1.38700440379435
1.702,2.52133338285513
1.703,3.98862498715851
1.704,4.48064369371564
1.705,4.63897375171182
1.706,4.63656405124884
1.707,3.69805057175714
1.708,2.41807253595407
1.709,0.882422207508871
1.71,-0.0340013476480633
1.711,-0.896343412526379
1.712,-1.17503448788655
1.713,-1.24993112851646
1.714,-1.15078283316648
1.715,-1.23290895207347
1.716,-1.23195489360145
1.717,-1.22366289040515
1.718,-1.14285674382014
1.719,-0.585468707660122
1.72,-0.0853934777517635
1.721,0.718538168107414
1.722,2.10810472493842
1.723,3.29803919099866
1.724,4.38754064933505
1.725,5.64673440019455
1.726,4.4169149383018
1.727,3.57322153284721
1.728,2.38812728362773
1.729,0.944536369045444
1.73,0.0987130465395281
1.731,-0.80480461791846
1.732,-1.08702537669615
1.733,-1.24712717756511
1.734,-1.23794387781631
1.735,-1.23952659735136
1.736,-1.20409726082316
1.737,-1.24784646399188
1.738,-1.21945474025935
1.739,-0.605942690069551
1.74,0.149590436754764
1.741,1.48286473914413
1.742,2.11489380463172
1.743,3.30128541914721
1.744,4.75671327366903
1.745,4.44608223780693
1.746,4.76207851573774
1.747,3.29971170306523
1.748,2.54347169304215
1.749,0.925275507362263
1.75,-0.184929195330051
1.751,-0.889109001317011
1.752,-1.13126738719079
1.753,-1.24938551389595
1.754,-1.22530691640107
1.755,-1.08869151276015
1.756,-1.22268449754868
1.757,-1.23558679483538
1.758,-1.09975989456596
1.759,-0.660483929447337
1.76,0.0514491170795444
1.761,1.03627476187158
1.762,2.18425676515984
1.763,3.99824600442503
1.764,4.73224987603237
1.765,5.64006313108876
1.766,4.62746818678162
1.767,3.2012386758449
1.768,2.23189802408055
1.769,0.865793916429499
1.77,-0.195722324490243
1.771,-0.744727440842035
1.772,-1.01172644038567
1.773,-1.2256957823799
1.774,-1.23434719791763
1.775,-1.16979028600749
1.776,-1.15529762522674
1.777,-1.23250918666319
1.778,-1.09887474200001
1.779,-0.670065944916507
1.78,-0.19351541513276
1.781,1.48921816458141
1.782,2.63090479494573
1.783,3.53772217926948
1.784,4.6516260789902
1.785,4.77314295568045
1.786,3.66304224911281
1.787,3.75967222589599
1.788,2.23309154036479
1.789,1.14914091139739
1.79,0.30611942015553
1.791,-0.711456894579327
1.792,-1.12717806351244
1.793,-1.24853438045813
1.794,-1.21960524650717
1.795,-1.19820283174444
1.796,-1.24999219793849
1.797,-1.24984978744626
1.798,-1.15981640825299
1.799,-0.760853154721932
1.8,-0.291955061485836
1.801,1.15174605097707
1.802,2.25044488479726
1.803,3.4458751733491
1.804,4.78623282087995
1.805,4.26243525853276
1.806,4.3625841157433
1.807,3.34604765977051
1.808,2.40828735180791
1.809,1.24960315109157
1.81,-0.0268380771139961
1.811,-0.580084535107593
1.812,-1.08139400481629
1.813,-1.24663683306244
1.814,-1.24745358952807
1.815,-1.18707007666587
1.816,-1.22441883963407
1.817,-1.24885761495535
1.818,-1.07024070176634
1.819,-0.747723927741597
1.82,-0.120026193037857
1.821,0.938959156039607
1.822,2.44420654375005
1.823,3.53105138208467
1.824,4.12736060498615
1.825,4.34295057160414
1.826,4.13176314513623
1.827,3.52202782033948
1.828,2.68909919814481
1.829,0.556393695357506
1.83,-0.372937293364913
1.831,-0.935925987331067
1.832,-1.18499939446158
1.833,-1.2498213513921
1.834,-1.19343530607138
1.835,-1.2499859259076
1.836,-1.22136998816128
1.837,-1.24992539401228
1.838,-1.18687374980646
1.839,-0.855537057727017
1.84,-0.0482931394116127
1.841,1.35361471112905
1.842,2.12135710167469
1.843,3.62746672901471
1.844,4.90454832964827
1.845,4.53470981599627
1.846,4.72553741452967
1.847,3.78261683576566
1.848,2.32654859735958
1.849,1.68859899255446
1.85,-0.4284656610418
1.851,-0.871326841397651
1.852,-1.21578629689585
1.853,-1.24624987470664
1.854,-1.18745521429416
1.855,-1.10360125815615
1.856,-1.21221038677574
1.857,-1.23621024785335
1.858,-1.09869434642066
1.859,-0.829575612873297
1.86,0.300039138252822
1.861,1.08127913408851
1.862,2.67399052394419
1.863,4.22649240096501
1.864,4.57761277375643
1.865,4.78218052771911
1.866,4.94723713670289
1.867,3.85901508664062
1.868,2.40050320577149
1.869,1.15010192191539
1.87,-0.123376593725675
1.871,-0.666739927419847
1.872,-1.17937174071324
1.873,-1.24415703319641
1.874,-1.22295514195501
1.875,-1.21372816318786
1.876,-1.22553073209305
1.877,-1.24246958696127
1.878,-1.17037726522492
1.879,-0.869307389553036
1.88,-0.108884994437701
1.881,0.766180680148181
1.882,2.60052823219521
1.883,3.76690494383411
1.884,4.88639250716158
1.885,4.6948556083281
1.886,4.63173280765179
1.887,3.09221910383098
1.888,2.05633578607302
1.889,0.510256150001802
1.89,0.0368484998371555
1.891,-0.717552331089541
1.892,-1.15074581702902
1.893,-1.23982374435993
1.894,-1.2496038061862
1.895,-1.17783074757871
1.896,-1.18176053507283
1.897,-1.2499158281157
1.898,-1.05833014374561
1.899,-0.599849338107611
1.9,-0.184352446816457
1.901,1.17307981064482
1.902,2.65391125827013
1.903,3.90507097269271
1.904,5.03864181930974
1.905,5.25509160706969
1.906,4.55188931587212
1.907,2.91309138827783
1.908,2.21899591840584
1.909,1.12617078522113
1.91,-0.102057930268743
1.911,-0.7757817872357
1.912,-1.09643022898432
1.913,-1.24711602233815
1.914,-1.17807273712351
1.915,-1.22977102814391
1.916,-1.1738410360843
1.917,-1.24971921878288
1.918,-1.19233708396036
1.919,-0.856651390589789
1.92,0.222405735213645
1.921,0.832326627637623
1.922,2.2281334881837
1.923,4.41793776543854
1.924,4.09785602544003
1.925,4.51303720231311
1.926,4.21433671332029
1.927,3.77589867165808
1.928,2.24842827182788
1.929,1.35469937860247
1.93,0.0940219771514155
1.931,-0.765659438284851
1.932,-1.16482523865616
1.933,-1.23095261060469
1.934,-1.23121053110784
1.935,-1.23383631580963
1.936,-1.23813613929116
1.937,-1.20845687777258
1.938,-1.16736573115292
1.939,-0.715759546324062
1.94,-0.142062775448865
1.941,1.31172295773195
1.942,2.40121704795517
1.943,3.31102454200384
1.944,3.90944387102313
1.945,4.39873889135121
1.946,3.88551633425953
1.947,3.70589048553597
1.948,2.32371940749484
1.949,1.62920907018998
1.95,-0.0216222067454102
1.951,-0.659854742207856
1.952,-1.19245695892289
1.953,-1.24910568672072
1.954,-1.17666419591075
1.955,-1.23516800912256
1.956,-1.24810417073293
1.957,-1.24995855450934
1.958,-1.1161690486341
1.959,-0.947226451958467
1.96,-0.182413885523089
1.961,0.993769441950161
1.962,2.48001975886052
1.963,4.12900083365799
1.964,3.81242765364347
1.965,5.08530625580605
1.966,3.64777073114783
1.967,3.88852766188764
1.968,1.78936227716379
1.969,0.783251491707984
1.97,-0.171279593099585
1.971,-0.644742953796297
1.972,-1.11933481333713
1.973,-1.24514352739036
1.974,-1.23435346174675
1.975,-1.18578483658535
1.976,-1.23382896860221
1.977,-1.2454072541019
1.978,-1.09300823198043
1.979,-0.884952457395382
1.98,0.104921426936219
1.981,1.01295889039769
1.982,2.24846189368469
1.983,4.37245505480756
1.984,4.25027277009569
1.985,4.65451344161589
1.986,4.03111607182023
1.987,3.62938490330192
1.988,3.22353511895861
1.989,1.39585446893808
1.99,0.0539962579242931
1.991,-0.855348756650708
1.992,-1.14756041445493
1.993,-1.24867916635508
1.994,-1.24311610763899
1.995,-1.21513259762107
1.996,-1.24510541112962
1.997,-1.24996441239337
1.998,-1.00667732106261
1.999,-0.776962114371804
2,-0.154847543070863
2.001,1.0888007787649
2.002,2.55412705585569
2.003,3.73823370970036
2.004,4.21155188674635
2.005,4.75093554810042
2.006,4.213734141009
2.007,3.36429468629934
2.008,2.44964984634756
2.009,0.665564520927109
2.01,0.0589564609538023
2.011,-0.741500153952798
2.012,-1.15172434868249
2.013,-1.24997695329375
2.014,-1.18738518872833
2.015,-1.24243082638285
2.016,-1.24638119956216
2.017,-1.24937744952756
2.018,-1.09814174374196
2.019,-0.790925822375157
2.02,-0.0962002865552817
2.021,0.992465202516803
2.022,2.75044141627901
2.023,3.32407055283525
2.024,3.92456668501546
2.025,4.88542177588182
2.026,4.4403482633049
2.027,3.65832088556577
2.028,2.27141000009603
2.029,1.32149435951338
2.03,-0.32918831591651
2.031,-0.797059213392515
2.032,-1.13982632487762
2.033,-1.24978566576197
2.034,-1.23347509236977
2.035,-0.994928679237221
2.036,-1.24950651031623
2.037,-1.24244823067416
2.038,-1.09039843013886
2.039,-0.603608729963378
2.04,-0.131852634296516
2.041,0.917665744421224
2.042,2.80892085305964
2.043,4.44683319008808
2.044,5.06514499367096
2.045,5.1612973846135
2.046,4.98948126610001
2.047,4.01574697636062
2.048,2.43512902368734
2.049,1.40285876426955
2.05,0.288820105184426
2.051,-0.740980689134815
2.052,-1.0805030733704
2.053,-1.2394085892995
2.054,-1.20893880440729
2.055,-1.11248772229269
2.056,-1.23130852698828
2.057,-1.23152635454071
2.058,-1.08168864177352
2.059,-0.826316017646897
2.06,-0.140333350538641
2.061,1.47067350093085
2.062,2.12337917995955
2.063,3.07670494159545
2.064,5.46380042340941
2.065,5.01007501812361
2.066,3.57555915226065
2.067,3.86350029636265
2.068,2.7263104932616
2.069,0.855622474312702
2.07,-0.031501197962431
2.071,-1.01330957362419
2.072,-1.12632489844194
2.073,-1.23517238249739
2.074,-1.2499859409922
2.075,-1.21271603390742
2.076,-1.22923247147098
2.077,-1.23943896463931
2.078,-1.13299890617429
2.079,-0.957259061239618
2.08,0.0183480286163676
2.081,1.40279842437318
2.082,2.22900797001152
2.083,3.18221863595681
2.084,5.19809670772742
2.085,4.87874774309721
2.086,4.64389130804007
2.087,3.78116216542542
2.088,2.70549872679373
2.089,0.832148761581693
2.09,0.0558042814349729
2.091,-0.656879688461039
2.092,-1.07444992202527
2.093,-1.24837462090136
2.094,-1.23876441948191
2.095,-1.20848751896845
2.096,-1.24578806109407
2.097,-1.2250682629358
2.098,-1.16807091127647
2.099,-0.839306658149277
2.1,-0.0716474452182936
2.101,1.5026109072507
2.102,2.74851810577676
2.103,3.42590788351314
2.104,4.53406830843566
2.105,5.33372460617844
2.106,4.85379084312804
2.107,3.45806206130072
2.108,1.96328312729322
2.109,1.22098889090673
2.11,-0.00211285536142318
2.111,-0.903093966567031
2.112,-1.1879122916821
2.113,-1.24991430022303
2.114,-1.23077497073231
2.115,-1.20844231104272
2.116,-1.23264434382088
2.117,-1.24824382388262
2.118,-1.15409914279464
2.119,-0.75193529489783
2.12,-0.247192468951857
2.121,1.34577246101847
2.122,1.95818381954968
2.123,3.54532476080873
2.124,4.70315204612589
2.125,5.27214484622812
2.126,4.41595504641171
2.127,3.8742885853424
2.128,2.97521413666231
2.129,0.842905965824181
2.13,0.0117114316211379
2.131,-0.858390707204495
2.132,-1.11525090044068
2.133,-1.24167390410871
2.134,-1.22067165692117
2.135,-1.22913103147437
2.136,-1.24484589315025
2.137,-1.24844000477074
2.138,-1.12263189186232
2.139,-0.664194930128464
2.14,0.184599917834963
2.141,1.58969819627473
2.142,2.7908624844282
2.143,3.45201825808775
2.144,4.57273643526001
2.145,4.98144146904469
2.146,4.73569813129053
2.147,3.4797916044756
2.148,2.38546596523749
2.149,0.932969020604798
2.15,0.093373854518007
2.151,-0.931688585454096
2.152,-1.07795069907625
2.153,-1.24732342880776
2.154,-1.18240610711562
2.155,-1.10678594097696
2.156,-1.16015418236937
2.157,-1.24653095665369
2.158,-1.12642011499851
2.159,-0.694010362693925
2.16,-0.207743844683022
2.161,0.990333378386655
2.162,2.8984801489943
2.163,3.65405184900199
2.164,4.61924906674312
2.165,5.03833908907338
2.166,5.3179542517685
2.167,3.65731374098996
2.168,2.67630125135527
2.169,1.02558308703807
2.17,-0.311053120999587
2.171,-0.775068152072076
2.172,-1.07494130008667
2.173,-1.24989306485829
2.174,-1.22045985713633
2.175,-1.09227658125336
2.176,-1.19676348503819
2.177,-1.22783866407625
2.178,-1.14765112131909
2.179,-0.851329607528152
2.18,-0.287622621877717
2.181,1.39228568364596
2.182,1.83969836396049
2.183,3.61911969910534
2.184,4.22320919915475
2.185,4.8263811360983
2.186,3.98859609756175
2.187,4.13274924394512
2.188,2.63468966978682
2.189,1.23292458048202
2.19,-0.0646896558490645
2.191,-0.774504260448742
2.192,-1.13679342311627
2.193,-1.24101441048127
2.194,-1.23643104621306
2.195,-1.16951032680672
2.196,-1.21767608551914
2.197,-1.24132410139536
2.198,-1.15501429954355
2.199,-0.95142481241968
2.2,-0.0189161940062952
2.201,0.728351146439313
2.202,2.67975266208534
2.203,3.4894380673514
2.204,4.17058503270442
2.205,4.23733152778168
2.206,4.56380067519461
2.207,3.89281408839328
2.208,2.63068998821592
2.209,1.23324296103052
2.21,0.135559196160793
2.211,-0.782865105858202
2.212,-1.11507473049106
2.213,-1.24700578862781
2.214,-1.24998547301964
2.215,-1.1161600182844
2.216,-1.22951299922038
2.217,-1.24433217815253
2.218,-1.13591450892298
2.219,-0.680788774925941
2.22,-0.117982070978076
2.221,1.36216160660411
2.222,2.6767609349825
2.223,4.73162628706635
2.224,4.30167958081394
2.225,4.11881862605513
2.226,4.66702883987406
2.227,3.36942012427496
2.228,2.47858543441366
2.229,1.21619550199442
2.23,-0.207629714005557
2.231,-0.664278891443282
2.232,-1.16845704171709
2.233,-1.23184997408656
2.234,-1.14564855696433
2.235,-1.06215887240903
2.236,-1.21346165624627
2.237,-1.2275219569545
2.238,-1.10495158888764
2.239,-0.752060122202852
2.24,-0.0522955330186871
2.241,1.26822188251031
2.242,1.92377740795336
2.243,3.00400527394393
2.244,5.12872838095734
2.245,5.33377375575484
2.246,4.25469041448526
2.247,3.78638650816543
2.248,2.19801324469636
2.249,1.07628917133087
2.25,-0.115541935392444
2.251,-0.817206512142353
2.252,-1.21573907640486
2.253,-1.24127105856654
2.254,-1.23005714462253
2.255,-1.14830270394416
2.256,-1.24973015391726
2.257,-1.24827510622492
2.258,-1.09870477343157
2.259,-0.480774387449981
2.26,-0.219006348642312
2.261,1.17877756421306
2.262,2.48122104210885
2.263,3.47074759651564
2.264,4.26342202625272
2.265,4.24722882192618
2.266,3.64468426669527
2.267,3.19374472197639
2.268,2.72461431646572
2.269,1.46969612141165
2.27,-0.0243888694553282
2.271,-0.766020587452773
2.272,-1.0998182067536
2.273,-1.24937645977211
2.274,-1.11341281197625
2.275,-1.20438297394766
2.276,-1.16559013239432
2.277,-1.24853173199591
2.278,-1.15740766284729
2.279,-0.757231717025029
2.28,0.145791414430145
2.281,0.84513563890426
2.282,2.69552134724386
2.283,3.57520116035476
2.284,5.02847952028855
2.285,4.61552456631837
2.286,5.24111191968984
2.287,3.84147336816598
2.288,3.26662574647116
2.289,1.60602951002908
2.29,-0.0393503172028812
2.291,-0.542046727603524
2.292,-1.15591450680703
2.293,-1.24985392131283
2.294,-1.23190907218955
2.295,-1.1508984656368
2.296,-1.20225422639334
2.297,-1.24574490015333
2.298,-1.15506565455323
2.299,-0.732467074209178
2.3,-0.165294662671256
2.301,1.28867684143585
2.302,2.12078802323524
2.303,3.72986463465848
2.304,4.14462387473301
2.305,4.83953669353283
2.306,4.74545134517178
2.307,3.27700481142129
2.308,2.0120966942996
2.309,1.18726594389809
2.31,-0.119727753487587
2.311,-0.808115325586296
2.312,-1.10107439153646
2.313,-1.24296408011107
2.314,-1.24942459438912
2.315,-1.17139309784129
2.316,-1.18862090213783
2.317,-1.2397383026043
2.318,-1.24344059014156
2.319,-0.552394177090601
2.32,0.498467250847488
2.321,1.04592908857762
2.322,2.19191556145488
2.323,3.48120866787085
2.324,4.29806908227499
2.325,4.98757765634056
2.326,4.27524599914887
2.327,3.90779468667688
2.328,2.42381358315968
2.329,0.935000456448421
2.33,-0.224412440348107
2.331,-0.772242252994001
2.332,-0.935500457170213
2.333,-1.24841736705452
2.334,-1.1901463345501
2.335,-1.21868869169516
2.336,-1.20850445765411
2.337,-1.24987343732793
2.338,-1.16454488810846
2.339,-0.720846848661857
2.34,-0.113052189084121
2.341,0.807219595637833
2.342,2.34221761590992
2.343,2.90748151258436
2.344,4.06054565989524
2.345,4.83528503511597
2.346,4.3746295691619
2.347,3.26283008409872
2.348,2.53782154610213
2.349,1.07094892311544
2.35,0.232071083450256
2.351,-0.743674579668872
2.352,-1.1177651854553
2.353,-1.19944923449399
2.354,-1.24737946141872
2.355,-1.1986870549328
2.356,-1.23262269671601
2.357,-1.2290720809744
2.358,-1.1093401134746
2.359,-0.584414734122999
2.36,-0.121243718613396
2.361,1.57421755752286
2.362,2.94883751672765
2.363,3.00562084737526
2.364,3.52610286395564
2.365,4.43961089435587
2.366,4.85464925204713
2.367,3.60683833635701
2.368,2.25569367411578
2.369,1.18240120158671
2.37,-0.030810464004216
2.371,-0.432860538468693
2.372,-1.07087849830509
2.373,-1.23703057201432
2.374,-1.23258201445968
2.375,-1.20281983011438
2.376,-1.24979075166616
2.377,-1.24821470968938
2.378,-1.21727710382769
2.379,-0.846557106063576
2.38,-0.205488052339845
2.381,0.985468723366206
2.382,2.30668565529514
2.383,4.01481600153494
2.384,4.73425065872345
2.385,4.56549204125321
2.386,3.61110653749558
2.387,3.34739093051112
2.388,2.14176743369298
2.389,1.40664004537386
2.39,0.0754555983242969
2.391,-0.752702631125714
2.392,-1.0607655339731
2.393,-1.21078827244479
2.394,-1.24999386163571
2.395,-1.16049683542355
2.396,-1.17409767398711
2.397,-1.24608704291698
2.398,-1.12521804178828
2.399,-0.80591218730766
2.4,-0.0385842716939259
2.401,1.03438887462354
2.402,2.42089436082005
2.403,3.9475459071339
2.404,4.76058944637916
2.405,4.47816974737883
2.406,4.56731757687347
2.407,3.66421235553036
2.408,2.21138010358694
2.409,0.6682033876715
2.41,0.42171902464478
2.411,-0.868853921353174
2.412,-1.21252146390429
2.413,-1.24650288348157
2.414,-1.19106104561096
2.415,-1.16991759866912
2.416,-1.210142534423
2.417,-1.24664016365763
2.418,-1.16502180334911
2.419,-0.761150231408249
2.42,-0.344735782622771
2.421,1.81457579124642
2.422,2.45842687469674
2.423,3.30471648523385
2.424,4.1314056639222
2.425,5.05509058881926
2.426,4.70341533664101
2.427,3.87202146953904
2.428,2.71066403837048
2.429,0.860102398286757
2.43,-0.134485417091455
2.431,-0.700137156608512
2.432,-1.07204186355589
2.433,-1.2471997181323
2.434,-1.22162112167859
2.435,-1.24618684086487
2.436,-1.24971236037633
2.437,-1.2471167437867
2.438,-1.16253636945311
2.439,-0.904645909033074
2.44,0.144429509853463
2.441,0.83997825729737
2.442,2.54193629189544
2.443,3.42858828313216
2.444,4.84143743709212
2.445,4.77943035365715
2.446,4.60918660390961
2.447,3.36814358200956
2.448,2.60333562268551
2.449,0.965407766638306
2.45,-0.200167660489495
2.451,-0.77813167656298
2.452,-1.22394545725716
2.453,-1.24975477087033
2.454,-1.15851008627053
2.455,-1.23938901637998
2.456,-1.19066370915785
2.457,-1.23069658988606
2.458,-1.20308756419916
2.459,-0.962397373888413
2.46,-0.346713037152119
2.461,1.21850133953233
2.462,2.2472346881982
2.463,2.94976647100443
2.464,4.10513649524451
2.465,4.98694299812455
2.466,4.24896034452427
2.467,3.43822532642778
2.468,2.49010724163058
2.469,1.08589842222123
2.47,-0.240734976908472
2.471,-0.866870223932424
2.472,-1.06211025494901
2.473,-1.2101199093241
2.474,-1.22332025978167
2.475,-1.18295183432147
2.476,-1.23993671352762
2.477,-1.24755219825695
2.478,-1.10855353011009
2.479,-0.655791281959035
2.48,-0.0899682449994025
2.481,0.92479883930865
2.482,2.82703227749821
2.483,3.3454775951955
2.484,3.45279603689459
2.485,4.95316374968723
2.486,3.90798430226507
2.487,3.40196150842491
2.488,2.37247211133609
2.489,1.00810866055693
2.49,-0.0701509525353798
2.491,-0.967946311949138
2.492,-1.11719578804652
2.493,-1.24852697400696
2.494,-1.22987240749566
2.495,-1.20442836738916
2.496,-1.24968504361133
2.497,-1.2366177321567
2.498,-0.871275630018968
2.499,-0.710854320610212
2.5,-0.225082921241152
2.501,0.957181116242364
2.502,2.12691372734158
2.503,3.57400960776213
2.504,4.01399967778916
2.505,4.57850039784489
2.506,4.65205974251236
2.507,3.64559112946284
2.508,2.6087617666907
2.509,1.22762113877627
2.51,-0.128419907669484
2.511,-0.672777816254413
2.512,-1.15994336561144
2.513,-1.24998643422504
2.514,-1.21077923317538
2.515,-1.2097412334284
2.516,-1.24699378632234
2.517,-1.24956229341454
2.518,-1.00410349905905
2.519,-0.899833706713576
2.52,-0.0544046120322163
2.521,1.55127678965928
2.522,2.36073371211218
2.523,3.58607597187114
2.524,3.9335502010734
2.525,4.59027016749843
2.526,3.77593527782912
2.527,3.93745023112493
2.528,2.20437446177896
2.529,1.49449863015773
2.53,0.32325122995243
2.531,-0.727018838906192
2.532,-0.974942337508938
2.533,-1.24991295768559
2.534,-1.17218809304349
2.535,-1.19153298394124
2.536,-1.20758816237345
2.537,-1.23309020211668
2.538,-1.12159309264951
2.539,-1.01164642962007
2.54,0.123680419871372
2.541,1.15102378626964
2.542,2.1336067133592
2.543,3.82440857823989
2.544,4.41968898575134
2.545,5.2918275962212
2.546,3.93134201612543
2.547,3.74667462720745
2.548,2.21712861134634
2.549,1.31007343095873
2.55,-0.0279863643434936
2.551,-0.878206335650952
2.552,-1.13920402186757
2.553,-1.24597964833191
2.554,-1.24066618310753
2.555,-1.23263904442604
2.556,-1.2147943726801
2.557,-1.24671418525076
2.558,-1.09926670734477
2.559,-0.804275072101087
2.56,0.0377869850015929
2.561,1.73309036860261
2.562,2.33228751180391
2.563,3.93992044474137
2.564,4.30784905040823
2.565,5.31267147554952
2.566,5.08080332793658
2.567,4.62545819556056
2.568,2.43433575539437
2.569,1.18432579611641
2.57,0.0863978708435649
2.571,-1.05324213596772
2.572,-1.19123747553075
2.573,-1.24873808520114
2.574,-1.23429376746595
2.575,-1.15865605685106
2.576,-1.24975925231101
2.577,-1.24769690444247
2.578,-1.14091187902673
2.579,-0.724571892277839
2.58,-0.0557308343107451
2.581,1.31972044488857
2.582,1.92479967104134
2.583,3.30282689437962
2.584,4.30576873908115
2.585,4.91616564980929
2.586,3.92212309470233
2.587,3.56204184284813
2.588,1.6553321709463
2.589,1.31588396176306
2.59,0.429045096920224
2.591,-0.903439956169617
2.592,-1.18416170346233
2.593,-1.17623691558954
2.594,-1.24801523616819
2.595,-1.21275928465545
2.596,-1.20557609566174
2.597,-1.24958721385507
2.598,-1.16794489483779
2.599,-0.808198455709241
2.6,0.0828109310815781
2.601,1.16663067333951
2.602,2.12579431698233
2.603,3.55226813325084
2.604,4.42324933272915
2.605,5.00206509572902
2.606,4.05117154876169
2.607,3.67288638373088
2.608,2.38244261671718
2.609,0.960372508064159
2.61,-0.144617299533521
2.611,-0.731103780129845
2.612,-1.20183966128252
2.613,-1.24995368927338
2.614,-1.24547873259302
2.615,-1.22479883318977
2.616,-1.20818573780773
2.617,-1.16609682185147
2.618,-1.17307480059274
2.619,-0.654279163112648
2.62,-0.112311100744516
2.621,1.22543853777795
2.622,1.70886114970451
2.623,3.84985076013283
2.624,4.19898397699865
2.625,5.21513019644119
2.626,4.44695891388804
2.627,4.31475476999373
2.628,1.78732053783138
2.629,1.33041165078861
2.63,0.0189045052524137
2.631,-0.839108388649569
2.632,-1.17210669493043
2.633,-1.24682577016361
2.634,-1.24130322154534
2.635,-1.17611864079815
2.636,-1.1954214241418
2.637,-1.24908085073443
2.638,-1.17277653535099
2.639,-0.612976395031941
2.64,0.167751897199741
2.641,1.11607738980166
2.642,2.71739396843418
2.643,3.89993631832391
2.644,3.57491497146486
2.645,5.57639614134144
2.646,4.29754364515409
2.647,3.1578273739415
2.648,2.23364166747876
2.649,0.811388980839332
2.65,0.0183058818428518
2.651,-0.883059124783573
2.652,-1.12936544881135
2.653,-1.23764875388916
2.654,-1.21839014875304
2.655,-1.14235094219048
2.656,-1.22767995340735
2.657,-1.24995269249519
2.658,-1.13748845396598
2.659,-0.695600745554394
2.66,-0.0709115202638026
2.661,0.872577831780365
2.662,1.92987203787276
2.663,3.78602128451995
2.664,4.46985985629791
2.665,4.7353004584695
2.666,4.96049919941114
2.667,3.52869013540901
2.668,2.6321352012477
2.669,1.04049037083184
2.67,0.0863203208495034
2.671,-0.847457346745108
2.672,-1.19304060974643
2.673,-1.24919235352916
2.674,-1.19308898219327
2.675,-1.13506866345772
2.676,-1.20090168911755
2.677,-1.2443773787859
2.678,-1.19861646347462
2.679,-0.635191214733593
2.68,-0.135206836173873
2.681,0.760116368516925
2.682,2.73406206613164
2.683,3.34027751573463
2.684,5.49426183002861
2.685,5.00427475276018
2.686,4.36143713479197
2.687,4.02426593110295
2.688,2.75074412229562
2.689,0.35132889260034
2.69,0.00432843171341008
2.691,-0.89454837696671
2.692,-1.0439060151866
2.693,-1.23517185917889
2.694,-1.24729140331918
2.695,-1.1612987526235
2.696,-1.23371504607899
2.697,-1.22020393599872
2.698,-1.03354184723536
2.699,-0.566683310837916
2.7,0.106600829477291
2.701,1.03770940776697
2.702,2.94723364528738
2.703,3.61335259011683
2.704,5.09500085254396
2.705,4.70251277853265
2.706,4.50911599133777
2.707,3.87884356914079
2.708,2.14702080478761
2.709,1.38005120483103
2.71,0.332927877140662
2.711,-0.87101308528465
2.712,-1.1954058473043
2.713,-1.24630316334657
2.714,-1.24081685162243
2.715,-1.14350421827982
2.716,-1.22893823633814
2.717,-1.24914851244166
2.718,-1.1862902770344
2.719,-0.782294604295103
2.72,-0.0629101944406283
2.721,0.867043672483333
2.722,2.41899819163723
2.723,3.90389028445821
2.724,4.49921208634134
2.725,4.65490364175904
2.726,3.64093289503424
2.727,3.95798089164641
2.728,2.77896964705402
2.729,1.35498915152667
2.73,-0.194650003345155
2.731,-0.866120161013949
2.732,-1.20431069805682
2.733,-1.2476138498251
2.734,-1.23286361429701
2.735,-1.22583964689073
2.736,-1.2014974042745
2.737,-1.24793260453113
2.738,-1.14332690263889
2.739,-0.71224191614852
2.74,0.0423512372863235
2.741,1.167049177137
2.742,2.23363225977169
2.743,3.52308969576687
2.744,3.97684495895733
2.745,4.95034751525404
2.746,5.02563672151258
2.747,3.83053845292633
2.748,2.22507515298825
2.749,1.12000426534716
2.75,-0.330591698768201
2.751,-0.847287689238858
2.752,-1.18104063341329
2.753,-1.22665732346238
2.754,-1.18071282055997
2.755,-1.2084691120409
2.756,-1.21509036756203
2.757,-1.24654744562075
2.758,-1.05436890061215
2.759,-0.742716777064925
2.76,0.518780324449744
2.761,1.21791047192918
2.762,2.32359204814527
2.763,4.04598611212817
2.764,3.94232047369697
2.765,4.25780894151273
2.766,4.50106631948921
2.767,3.99816966058091
2.768,1.92456426790348
2.769,1.30672441648709
2.77,0.185792709680368
2.771,-0.931155352662242
2.772,-1.14503552161793
2.773,-1.24980965293312
2.774,-1.20715111207755
2.775,-1.19075265621649
2.776,-1.23694577106711
2.777,-1.23970052307092
2.778,-1.21904083786802
2.779,-0.774267745162679
2.78,0.166607185000553
2.781,0.464449203970314
2.782,2.23322127854311
2.783,3.9284665036689
2.784,4.33811796894176
2.785,4.84969515723129
2.786,4.02851157463882
2.787,4.35684342522699
2.788,2.55913266523216
2.789,0.86793665972298
2.79,0.059538141522356
2.791,-0.730939551157169
2.792,-1.05090992134597
2.793,-1.22728842481714
2.794,-1.24494405310454
2.795,-1.23343917960094
2.796,-1.24019906780682
2.797,-1.24991762753486
2.798,-1.18215269323041
2.799,-0.580857967208949
2.8,-0.00557049598896063
2.801,0.897950088445317
2.802,2.28711698435926
2.803,3.81174293617164
2.804,4.65736339266869
2.805,4.44933718219749
2.806,4.63748666898827
2.807,4.00281580037307
2.808,2.81195913349445
2.809,0.52855296958004
2.81,0.0159717234730782
2.811,-0.599800502725089
2.812,-1.22848721375758
2.813,-1.18846221201432
2.814,-1.17450494859599
2.815,-1.23584228244855
2.816,-1.23863927793288
2.817,-1.24935830512404
2.818,-1.09135472834125
2.819,-0.855855637678231
2.82,0.00227170425973165
2.821,1.2463852823954
2.822,2.52836749412438
2.823,3.47058269690677
2.824,3.76830083047176
2.825,4.56140059231207
2.826,4.74710781225378
2.827,2.94193752386891
2.828,2.66915467470951
2.829,0.916657332358083
2.83,0.0548585677683639
2.831,-0.789958085657975
2.832,-1.190519036873
2.833,-1.24691930381433
2.834,-1.1997521997409
2.835,-1.15276246449649
2.836,-1.20669865461866
2.837,-1.24705342955527
2.838,-1.16162422683554
2.839,-0.960198043511437
2.84,-0.234745093694628
2.841,1.67770785035963
2.842,2.22710212284208
2.843,3.2701447553917
2.844,4.03526602173365
2.845,4.29492619250898
2.846,4.94905551628948
2.847,3.41070668737245
2.848,2.41017228585142
2.849,1.30022792952293
2.85,-0.024369079696227
2.851,-0.846095723667552
2.852,-1.15780637538098
2.853,-1.24960797208261
2.854,-1.19466348180543
2.855,-1.21805524930583
2.856,-1.23379917068567
2.857,-1.24983559326431
2.858,-1.15507311556825
2.859,-0.850900845844304
2.86,-0.214305752998552
2.861,1.28092596852377
2.862,1.9887945343603
2.863,3.77422749037596
2.864,4.9501920917117
2.865,4.4148879952118
2.866,4.58718180937075
2.867,3.51468445828046
2.868,1.81218023077319
2.869,0.941619351196701
2.87,-0.222998212097784
2.871,-0.556058254947052
2.872,-1.07515372221263
2.873,-1.24732148001337
2.874,-1.23874303264617
2.875,-1.23328841571249
2.876,-1.16927092437834
2.877,-1.2455636150924
2.878,-1.13101097219184
2.879,-0.73488526421704
2.88,0.182478849496399
2.881,1.12141638355013
2.882,2.49656066760702
2.883,3.13692688529526
2.884,4.77354074700152
2.885,5.49942188296771
2.886,4.4562084126405
2.887,3.15207020309083
2.888,2.80662526032473
2.889,1.03648630169177
2.89,0.32174769949872
2.891,-0.916532608386283
2.892,-1.11663222674837
2.893,-1.2470979423984
2.894,-1.24080583610154
2.895,-1.23457352823032
2.896,-1.22532552464394
2.897,-1.24081918278732
2.898,-1.14632615172641
2.899,-0.725128789684201
2.9,0.181405500478784
2.901,1.28276975430612
2.902,2.62295396384536
2.903,3.32555005107204
2.904,4.53135709619173
2.905,5.14915432894102
2.906,4.33556804370132
2.907,3.07784899506399
2.908,2.80353315540832
2.909,1.55977344369219
2.91,-0.105973393149294
2.911,-0.449876947004716
2.912,-1.14982496578364
2.913,-1.24997125763004
2.914,-1.24011862542414
2.915,-1.21018110065582
2.916,-1.23129322973878
2.917,-1.23886778019881
2.918,-1.04321092210413
2.919,-0.806807283655351
2.92,-0.161860814470719
2.921,1.18128872198973
2.922,2.76920298767558
2.923,3.92622756938307
2.924,4.30717356582337
2.925,4.71012446966949
2.926,4.73698503243527
2.927,3.64406126732442
2.928,2.43845402644252
2.929,1.07647183497624
2.93,-0.444783647716899
2.931,-0.618875795688284
2.932,-1.05862680440881
2.933,-1.24766819864915
2.934,-1.11260624008023
2.935,-1.23723261787506
2.936,-1.22427507621582
2.937,-1.24427174499321
2.938,-1.14438402450826
2.939,-0.593628452172575
2.94,0.0151540238530902
2.941,1.17151019952612
2.942,1.82647216207735
2.943,2.8409986951902
2.944,3.73803064751774
2.945,5.13858479762397
2.946,5.13102793242138
2.947,4.22977988011717
2.948,2.36224494904922
2.949,0.733828272017511
2.95,0.0312118160448249
2.951,-0.728632004900144
2.952,-1.19498810142771
2.953,-1.23548922766501
2.954,-1.19996450590556
2.955,-1.24983922500447
2.956,-1.22907461340412
2.957,-1.24441930457587
2.958,-1.10271034102724
2.959,-0.54544347021914
2.96,-0.33693633255758
2.961,0.873449948664368
2.962,2.4468345759144
2.963,3.5008122660581
2.964,4.04289055227326
2.965,5.02622330006363
2.966,3.56516038398731
2.967,3.295918151375
2.968,2.16227834840372
2.969,1.20492715614706
2.97,0.0527004944869313
2.971,-0.806436926255557
2.972,-1.22563999412496
2.973,-1.24942139533119
2.974,-1.20875861810868
2.975,-1.13826046603056
2.976,-1.19869290327623
2.977,-1.24997419760496
2.978,-1.09958708087242
2.979,-0.740771079086779
2.98,-0.0424087121274261
2.981,1.62455127938799
2.982,2.51421140040608
2.983,3.60911072390175
2.984,5.58103174433239
2.985,4.68529665901038
2.986,4.78205096285249
2.987,3.69680962007621
2.988,2.75891713458414
2.989,1.42330910563084
2.99,-0.167630926350972
2.991,-0.828057830699442
2.992,-1.13178359135816
2.993,-1.24883693896832
2.994,-1.24148276091757
2.995,-1.2329513740549
2.996,-1.1697858994916
2.997,-1.24569574341433
2.998,-1.23841278786303
2.999,-0.849892518227236
3,-0.0351801165354893
3.001,8.78029515190776
3.002,22.1376720006142
3.003,41.2824997273388
3.004,53.4722537229805
3.005,59.5012285611733
3.006,55.5928820278713
3.007,41.9605936435315
3.008,26.2583639625972
3.009,9.23622939281589
3.01,0.0967034029267216
3.011,-0.599436396901806
3.012,6.30947434085866
3.013,17.4245726090999
3.014,26.5178966515369
3.015,30.9905179931646
3.016,24.9998109131772
3.017,18.5354295298035
3.018,7.37577013591172
3.019,-0.234884927104203
3.02,0.0728424401664002
3.021,9.18032640190599
3.022,25.575494243224
3.023,42.3890504891945
3.024,57.3856620955041
3.025,60.520742714148
3.026,57.0650410173157
3.027,41.7280727292931
3.028,23.2452483519507
3.029,9.69735023386478
3.03,0.0844993411438566
3.031,-0.249301471936906
3.032,7.15406427260183
3.033,16.6294134584822
3.034,25.8993700558492
3.035,28.8194730606516
3.036,26.6505683884676
3.037,16.878327086615
3.038,6.49040047434705
3.039,-0.311600777463367
3.04,0.0209451285023641
3.041,8.66961313120287
3.042,24.0767079328565
3.043,41.9681022768968
3.044,54.6650032145145
3.045,58.9753840255222
3.046,55.9996562886817
3.047,41.1184815692617
3.048,24.5178828970815
3.049,8.53615949640702
3.05,-0.167568589212107
3.051,-0.148593339237578
3.052,7.3324382923542
3.053,16.4358540686304
3.054,26.4850475845933
3.055,31.1702481408762
3.056,26.7817903302794
3.057,17.6975706371735
3.058,6.65131312170217
3.059,-0.538121797256089
3.06,0.20999863534245
3.061,9.73998971067341
3.062,23.4211008986865
3.063,41.4098676758497
3.064,52.9977597747262
3.065,59.0699362897065
3.066,56.2742837309849
3.067,40.9026489557741
3.068,24.3344685349883
3.069,8.21170106235825
3.07,0.263117320607318
3.071,-0.680965412667781
3.072,6.96020453944683
3.073,16.3766399157868
3.074,27.913633163141
3.075,30.721283766835
3.076,26.4571374759257
3.077,16.1533745396901
3.078,6.63756689402278
3.079,-0.159458972859756
3.08,-0.215708042138243
3.081,9.05938785184894
3.082,25.2505406325175
3.083,41.5922188659132
3.084,52.7404494553208
3.085,58.031360324001
3.086,55.06341733183
3.087,38.4100572625283
3.088,23.5132269705815
3.089,9.47007696429236
3.09,0.0641071777392617
3.091,-0.238150808595061
3.092,5.95121996821027
3.093,16.8160533744651
3.094,26.666334780718
3.095,29.9154116720033
3.096,25.5374695456463
3.097,16.888551475395
3.098,6.26902933246502
3.099,-0.674240156938927
3.1,-0.108553682585451
3.101,8.86371188753166
3.102,24.9192050177206
3.103,41.957993678384
3.104,57.2606421970201
3.105,57.7351839569354
3.106,52.2323944160646
3.107,41.5482869179906
3.108,23.4994646883451
3.109,9.40178179597027
3.11,0.229714939075919
3.111,-0.0959733647491161
3.112,6.55399684506881
3.113,17.3866524007232
3.114,25.3846490358815
3.115,30.5980855709997
3.116,26.3246736705346
3.117,15.8863126602511
3.118,7.06798618571968
3.119,-0.327883075110597
3.12,0.275098410049213
3.121,8.61154584799754
3.122,24.2457265783968
3.123,42.5312982229222
3.124,57.0673921956298
3.125,60.2731498825824
3.126,55.2135181530798
3.127,42.5068044696226
3.128,24.9663277084102
3.129,9.08801751685451
3.13,0.0845749147693504
3.131,-0.404562012762462
3.132,6.31810751026609
3.133,16.4199768162682
3.134,26.1281991548345
3.135,32.7461242969262
3.136,25.6637250144088
3.137,16.5183338570368
3.138,6.59662640860776
3.139,-0.290613517011634
3.14,-0.148539889098679
3.141,8.27532360573595
3.142,25.4960697311477
3.143,39.852057163513
3.144,57.872585706826
3.145,60.2605900805076
3.146,56.9294530751177
3.147,41.3174839712559
3.148,25.7627054468637
3.149,9.19636716296713
3.15,-0.142512069395813
3.151,-0.257125165374755
3.152,6.63077433275966
3.153,18.0358266479552
3.154,28.373559297994
3.155,29.1740328295771
3.156,25.6377848347603
3.157,16.4505137603301
3.158,6.24999356482632
3.159,-0.0553654769919811
3.16,0.0917391048401604
3.161,8.98188312135773
3.162,24.8293646357384
3.163,40.0025726504645
3.164,54.590809268496
3.165,60.3616726528905
3.166,56.1810743313696
3.167,40.2469359086337
3.168,22.9995976619568
3.169,8.55406456285031
3.17,-0.10351682033926
3.171,-0.0888033419851491
3.172,6.35243113801039
3.173,17.7958407569997
3.174,26.6382784996575
3.175,28.8175031071813
3.176,28.5154772061762
3.177,16.7538008974324
3.178,7.28956324052169
3.179,-0.423449164087582
3.18,0.0131265206068961
3.181,9.29884534934164
3.182,24.9270493763363
3.183,40.835320034655
3.184,54.1810935954308
3.185,58.0071303141606
3.186,56.8938883920897
3.187,41.4356444279696
3.188,24.2504356193011
3.189,9.25503991355826
3.19,0.214199620259455
3.191,-0.465452668530031
3.192,5.90732999237492
3.193,17.8263683382815
3.194,26.9518709984959
3.195,30.598540012735
3.196,26.1031224785974
3.197,18.8280902281914
3.198,6.41322836321629
3.199,-0.0765268361331142
3.2,-0.525218027920534
3.201,8.65094264469958
3.202,23.679037591861
3.203,42.8177918895725
3.204,56.5359993544176
3.205,57.3735831533924
3.206,53.8107180675864
3.207,41.9672637850443
3.208,25.3448354391912
3.209,9.62567834999022
3.21,-0.040808436817023
3.211,-0.153440076856807
3.212,6.85003687579425
3.213,17.7869335274385
3.214,26.2336391659196
3.215,29.8012703624223
3.216,25.8733572342336
3.217,16.3078726208245
3.218,6.2483271595308
3.219,-0.457077892920842
3.22,-0.0199750085216207
3.221,8.51862765475227
3.222,23.0047742883538
3.223,41.3825021775551
3.224,51.0627280384876
3.225,59.0333560016203
3.226,55.679539755082
3.227,42.7758134792018
3.228,22.4846608121474
3.229,8.88785657349397
3.23,0.137600853366719
3.231,-0.209617960904757
3.232,7.16879848734111
3.233,17.3330937049426
3.234,25.0592630181937
3.235,29.507346610892
3.236,26.323922384691
3.237,17.2315771445652
3.238,5.50493727176707
3.239,-0.169119402040283
3.24,-0.224626042267635
3.241,8.09726326059136
3.242,23.8748001088096
3.243,39.6750811036966
3.244,54.3321197831967
3.245,57.7980245797466
3.246,55.1599088435712
3.247,40.4029677652691
3.248,25.6444329921704
3.249,8.02590042278099
3.25,0.161759843190444
3.251,-0.491734918900872
3.252,6.11795470867402
3.253,17.3836360386146
3.254,25.6636091790222
3.255,32.0949115055171
3.256,26.9344052838169
3.257,16.6996481973944
3.258,6.24417552166297
3.259,-0.362547342597808
3.26,-0.0651173244164458
3.261,9.2005045326214
3.262,25.9330669316575
3.263,42.06944217792
3.264,56.1608317218477
3.265,59.0540422678115
3.266,55.1246504699625
3.267,40.3195797379051
3.268,23.9989463517227
3.269,8.94222303012233
3.27,0.158949852794202
3.271,-0.473579115166494
3.272,6.36066105606485
3.273,17.1611376139015
3.274,27.0898692646871
3.275,31.8087668943728
3.276,27.8444015848507
3.277,17.6920378839827
3.278,7.79376559974935
3.279,-0.212088936696929
3.28,-0.184140236171866
3.281,8.29820862519153
3.282,23.9261368607842
3.283,40.3610789046187
3.284,55.9887350870706
3.285,60.1570155604428
3.286,53.0201817671021
3.287,40.2024433754347
3.288,24.0289692440545
3.289,9.16484431611189
3.29,0.238178536143151
3.291,-0.244350442192077
3.292,6.84573895979102
3.293,16.6306922922312
3.294,26.3521518742885
3.295,29.4698736801479
3.296,27.0917049531227
3.297,17.1042080972249
3.298,6.31359244650634
3.299,-0.210749519579324
3.3,0.237648606353664
3.301,8.69768884770176
3.302,24.161576280346
3.303,41.3670017153674
3.304,51.9781860741308
3.305,59.9453431977626
3.306,55.0126874938654
3.307,40.4834640982813
3.308,24.9001879335225
3.309,8.42409904072225
3.31,0.110487354355234
3.311,-0.191170121535107
3.312,6.41646085601501
3.313,16.9018486467608
3.314,26.2405155483793
3.315,30.7888082412184
3.316,26.6806521920055
3.317,16.6067057139793
3.318,5.62839732658442
3.319,0.0652972774863052
3.32,-0.0999021812541565
3.321,9.91257837894731
3.322,25.6545296411331
3.323,43.2121717865875
3.324,55.7314690607351
3.325,60.3841194164252
3.326,52.8675567260219
3.327,41.0048756818245
3.328,24.859858680488
3.329,8.8630634585236
3.33,0.56296377550416
3.331,-0.441518940580607
3.332,6.62107186051012
3.333,18.2279844341836
3.334,24.8279201398582
3.335,28.9348576108022
3.336,27.0274352037098
3.337,18.1797399832206
3.338,7.53642779818254
3.339,-0.180722802596074
3.34,0.0857569480523673
3.341,8.9083503889059
3.342,24.1858579750397
3.343,41.9909274507887
3.344,54.1418775643305
3.345,59.1324672306983
3.346,52.9174172685161
3.347,42.9544121127154
3.348,22.7638808542226
3.349,8.39078875315601
3.35,0.216710139889013
3.351,-0.320894402253138
3.352,6.94039949906862
3.353,17.278544648617
3.354,26.2748471008063
3.355,30.0554203709639
3.356,26.6262281352495
3.357,17.4649788958982
3.358,7.15590853264443
3.359,-0.294873840254316
3.36,-0.253437847078658
3.361,8.82738702242548
3.362,25.417508423355
3.363,40.5224498378423
3.364,55.5810107698074
3.365,58.5084816865233
3.366,55.7173756011601
3.367,41.6896237564059
3.368,24.2089935263168
3.369,8.19149482909079
3.37,0.103638624674317
3.371,-0.318323420293038
3.372,7.29679211720743
3.373,16.9597388306598
3.374,25.0426365949018
3.375,31.5433388130851
3.376,27.3930248343033
3.377,18.0941605108466
3.378,7.60446977457888
3.379,-0.321808641724047
3.38,0.209804683707081
3.381,9.31755603874874
3.382,24.9206161567043
3.383,41.633395568518
3.384,55.3676700510834
3.385,59.8820287975029
3.386,53.2559824338284
3.387,41.5415204641227
3.388,23.60203870947
3.389,8.61093937207573
3.39,0.173722099482843
3.391,-0.410351786035061
3.392,6.68715318277272
3.393,18.1769879177526
3.394,25.8818649465539
3.395,31.2718614338646
3.396,25.2780645786876
3.397,17.0338743595719
3.398,6.42568602709474
3.399,-0.348718358008747
3.4,0.248705922549009
3.401,10.2335596321708
3.402,26.8777120458259
3.403,41.0172318063558
3.404,55.5011690090268
3.405,60.6483295082148
3.406,53.2330410444007
3.407,40.1205239436739
3.408,24.474366986719
3.409,8.66716850878293
3.41,0.129810512495772
3.411,-0.291270739433016
3.412,6.61096127507582
3.413,18.3664563375441
3.414,24.7050952367682
3.415,30.7423764882745
3.416,26.0474286828618
3.417,17.3014111716469
3.418,7.38826043177106
3.419,-0.336220477185127
3.42,0.299643356953148
3.421,9.09969048115162
3.422,24.0207648653538
3.423,41.9946416623287
3.424,55.1195116157994
3.425,58.9191777232945
3.426,54.5940212088327
3.427,42.1498133855154
3.428,23.6545583301796
3.429,8.27436621307108
3.43,-0.254956941182031
3.431,-0.519886477685003
3.432,6.75259781285222
3.433,17.3892785673145
3.434,27.2931010116883
3.435,29.6176079845164
3.436,26.8876273734676
3.437,18.2852822398484
3.438,7.08240922562608
3.439,-0.276194967114535
3.44,-0.215627243250935
3.441,8.93413699143519
3.442,24.7575535213481
3.443,41.1585690296821
3.444,56.4917856679265
3.445,61.171804922893
3.446,55.1574274048866
3.447,42.0539347025004
3.448,23.2873448820547
3.449,9.1633885139738
3.45,0.225618876842374
3.451,-0.116155792636762
3.452,5.85589009077795
3.453,17.6883534018
3.454,24.6009526404156
3.455,28.9919878757197
3.456,26.7903837312917
3.457,17.0201425173703
3.458,7.3149350308286
3.459,-0.269458392953545
3.46,0.0329932223685404
3.461,7.80510830821271
3.462,23.3723948450823
3.463,40.3702455203486
3.464,56.2990280488577
3.465,60.9903334245324
3.466,54.4866512830937
3.467,43.0659951204921
3.468,24.7435280018115
3.469,7.08805598730831
3.47,0.0225437480248133
3.471,-0.383732603005259
3.472,6.50928583685304
3.473,18.2204905289137
3.474,25.6447775364754
3.475,31.7679957570871
3.476,26.3994274994502
3.477,17.0748217700684
3.478,6.24903783190757
3.479,-0.25173132784145
3.48,-0.250325190100694
3.481,8.49000474185834
3.482,24.9548258982507
3.483,42.3680051707261
3.484,55.7498091742739
3.485,59.9724996189276
3.486,53.0380109618018
3.487,41.103044986407
3.488,24.524669962337
3.489,8.5696092595863
3.49,-0.115320424063349
3.491,-0.168206472231251
3.492,6.19664978913309
3.493,18.3648238501014
3.494,25.636368986721
3.495,30.4265814588047
3.496,26.7220279300628
3.497,17.8739549009411
3.498,6.42342670874771
3.499,-0.291121967278006
3.5,0.143405310340132
3.501,9.12807159988088
3.502,25.8774915508301
3.503,40.3084726758836
3.504,55.4497972496699
3.505,59.2810355713037
3.506,57.3534793587971
3.507,43.0091113644939
3.508,25.5880551136713
3.509,8.72779855840436
3.51,-0.0762962415855602
3.511,-0.304467792205001
3.512,6.53253196160125
3.513,15.9481435984026
3.514,26.9152557905118
3.515,29.6214597406435
3.516,27.1254905580408
3.517,17.1696463586652
3.518,6.98232395539501
3.519,-0.422978844969941
3.52,-0.230496240488229
3.521,10.0025280310857
3.522,23.0460644849028
3.523,41.7928756742499
3.524,56.8860224552413
3.525,59.615964567952
3.526,55.5631913229861
3.527,39.3999641060929
3.528,25.2123566482817
3.529,10.3376227181238
3.53,-0.219260497587203
3.531,-0.464371348076386
3.532,6.63444819723348
3.533,17.5028875102141
3.534,25.5505296389686
3.535,29.8916176626916
3.536,27.1976977724889
3.537,18.2030555017628
3.538,6.31803133079887
3.539,-0.456775504955564
3.54,-0.0740758642816554
3.541,9.25590983454348
3.542,24.4843181110647
3.543,41.2737841615516
3.544,54.9524010352017
3.545,60.4295178767493
3.546,55.1491417168417
3.547,39.3700783301196
3.548,24.9211379651217
3.549,8.95440982032825
3.55,0.00356762012168717
3.551,-0.453152828616077
3.552,7.55793109710118
3.553,17.9428884702997
3.554,27.3203908407528
3.555,30.7822266452769
3.556,26.4490960898496
3.557,17.186789320183
3.558,6.86231650573692
3.559,-0.637662022256238
3.56,0.252419392145078
3.561,10.1351494460429
3.562,25.6791835834145
3.563,41.3087828115733
3.564,56.4365267082967
3.565,58.5620259865736
3.566,55.9900830461689
3.567,40.4191498496005
3.568,24.715878648781
3.569,8.78769077108934
3.57,-0.00337811495118534
3.571,-0.373434025924139
3.572,6.39791991649513
3.573,17.5611832376702
3.574,27.4728550709732
3.575,28.7230698867754
3.576,25.7133306632652
3.577,18.7349378656466
3.578,6.37961037050028
3.579,-0.44447120696422
3.58,0.237322191011448
3.581,9.41096162175334
3.582,23.6434864924624
3.583,40.7601873610622
3.584,55.1187728674131
3.585,61.408554238239
3.586,55.2267877026638
3.587,43.4422090573681
3.588,24.39654963834
3.589,9.60372158573917
3.59,-0.188231333876674
3.591,-0.350480231276278
3.592,7.6282209121731
3.593,16.929929924323
3.594,28.7593889718154
3.595,28.7404168687733
3.596,26.9880949712683
3.597,17.603393302087
3.598,5.84780566813241
3.599,-0.0906230110358788
3.6,-0.0273621460393884
3.601,8.60298411414844
3.602,23.1667018902929
3.603,42.2156351843627
3.604,52.6416374592271
3.605,59.7424877290023
3.606,52.5004478232071
3.607,42.7856294790218
3.608,24.7403254590012
3.609,9.22785456385717
3.61,-0.270336173542516
3.611,-0.435173516760725
3.612,7.3263455678818
3.613,18.0476495199999
3.614,26.8835809163535
3.615,30.5719497041828
3.616,25.7916847706103
3.617,17.241299156413
3.618,7.16311719796348
3.619,-0.326484473267368
3.62,-0.288088938549435
3.621,8.87018166762907
3.622,25.3924748505273
3.623,41.8307135566391
3.624,55.4592655205149
3.625,60.9277917505809
3.626,56.3120306591421
3.627,41.7821028430702
3.628,23.3304999404333
3.629,8.92336930962471
3.63,0.407142291204736
3.631,-0.557109726111598
3.632,6.43413918520162
3.633,16.2643425700562
3.634,27.7204141302318
3.635,30.4899049567114
3.636,25.2623483352373
3.637,17.200306535698
3.638,5.99348308957105
3.639,-0.386574279955785
3.64,0.146845785765281
3.641,8.00441616885855
3.642,25.4970048408124
3.643,41.2205732812717
3.644,56.2835095964831
3.645,60.0293930213979
3.646,54.0149373623855
3.647,41.7326743214879
3.648,24.4735186318093
3.649,8.89873242759211
3.65,-0.13512845445253
3.651,-0.165187152940491
3.652,6.27457571751518
3.653,18.2291510053705
3.654,27.2742706568251
3.655,30.056078482956
3.656,24.691703029898
3.657,17.2433930882333
3.658,6.72372225555568
3.659,0.0208120871519339
3.66,-0.0914862931924486
3.661,9.36079972994166
3.662,24.2220216267062
3.663,40.0419922190668
3.664,56.9058743841114
3.665,59.0108618129211
3.666,51.9062417224892
3.667,42.9488619158602
3.668,23.7472868423656
3.669,9.19951770300951
3.67,-0.118058610112839
3.671,-0.353254685095419
3.672,6.25296683099525
3.673,17.5404154485663
3.674,26.3209221320442
3.675,30.9348641613277
3.676,25.8986993777469
3.677,17.2828071991991
3.678,6.7791929688025
3.679,-0.188814573638205
3.68,-0.0337588818484903
3.681,8.44348215002119
3.682,25.3530171512271
3.683,41.0514610704736
3.684,56.9714714010748
3.685,58.3007690294124
3.686,53.2953523948543
3.687,42.7233034478873
3.688,25.2283478423747
3.689,9.02186178188325
3.69,-0.284524873561359
3.691,-0.164714666960449
3.692,6.69883260595591
3.693,17.1472523976831
3.694,26.8573593791973
3.695,29.3033771505927
3.696,25.6007875489756
3.697,16.6926212591099
3.698,5.91336323957629
3.699,-0.419035411701639
3.7,-0.0123514564294608
3.701,9.73416566937749
3.702,23.6888457824372
3.703,42.8099786911391
3.704,53.5983578487212
3.705,60.3399972039941
3.706,56.1067187285424
3.707,43.4709978577323
3.708,23.7284448115484
3.709,10.2437196539224
3.71,0.204360953672857
3.711,-0.222342810367943
3.712,7.98885836404371
3.713,17.4664523594754
3.714,26.7788867944378
3.715,29.5687821331489
3.716,25.7909017297362
3.717,19.1523971384975
3.718,7.19104648129662
3.719,-0.408816998551359
3.72,0.0993645849330239
3.721,8.77967042755419
3.722,24.9941911729119
3.723,42.6351304327061
3.724,54.3216162365207
3.725,60.0986869493301
3.726,54.5207956786069
3.727,43.0055862748536
3.728,24.1810108157978
3.729,8.22895350214751
3.73,0.119532677436138
3.731,-0.538557566795995
3.732,7.08485007522263
3.733,16.2214024536967
3.734,27.3440104019621
3.735,31.7270529964278
3.736,27.5930997524357
3.737,17.3487817690732
3.738,6.58528948611338
3.739,-0.478941605184123
3.74,-0.147853126769382
3.741,8.39261688268334
3.742,25.4670797040932
3.743,41.3713558347221
3.744,55.9609947151734
3.745,60.350448019919
3.746,54.7338838735666
3.747,41.8336947158372
3.748,25.2708880093934
3.749,9.34540545814445
3.75,0.362191958287187
3.751,-0.57505679934915
3.752,6.56642052453836
3.753,18.6831665841314
3.754,26.5839010672344
3.755,30.0702090621028
3.756,24.7647224937442
3.757,17.6755587671003
3.758,6.30281308549528
3.759,-0.178253529088939
3.76,0.156765305993152
3.761,9.59538586378039
3.762,24.5468351568379
3.763,41.3559905960448
3.764,55.2530863999095
3.765,60.2605295565574
3.766,55.7066544027141
3.767,42.149603419147
3.768,24.9788567170363
3.769,7.89321410422713
3.77,-0.341647656443732
3.771,-0.614975486491546
3.772,6.16918837285385
3.773,16.5353054985263
3.774,26.0348908929147
3.775,29.1363622251167
3.776,27.0776670979671
3.777,17.8769517485047
3.778,5.8776107465395
3.779,-0.414686794962818
3.78,0.17622337007316
3.781,9.03772648022721
3.782,22.183270764602
3.783,42.802444691267
3.784,55.8064545591659
3.785,61.6591728878451
3.786,55.8648861141175
3.787,42.1755778329884
3.788,24.3784470886284
3.789,9.0011367957955
3.79,0.165157124439489
3.791,-0.31163826800622
3.792,6.5789877344274
3.793,17.0797207022175
3.794,27.0267058572891
3.795,30.1075200169926
3.796,26.4993378230869
3.797,16.302262229362
3.798,5.96371264403207
3.799,-0.413782980528271
3.8,-0.258440697903642
3.801,9.95081838222402
3.802,26.079184914768
3.803,40.900464432239
3.804,52.8774232082225
3.805,58.2433996890692
3.806,55.5318914422106
3.807,40.8114698034102
3.808,24.3828482992497
3.809,9.4851377999471
3.81,0.148101700561483
3.811,-0.0386568376615575
3.812,6.65314167926491
3.813,17.0858234275777
3.814,26.710911079002
3.815,31.0754873781041
3.816,28.1847688079166
3.817,16.7703401354308
3.818,6.31377167256684
3.819,-0.333454160411771
3.82,-0.349212050816558
3.821,8.11658282883984
3.822,23.6042321960739
3.823,42.7993881529863
3.824,53.7479116605118
3.825,61.4401078268857
3.826,54.4073376411672
3.827,41.1904852172815
3.828,24.7446794445266
3.829,9.30032618361205
3.83,0.720187835650657
3.831,-0.62889217851958
3.832,7.12504080389875
3.833,16.966739502743
3.834,26.4357646946168
3.835,30.3636152764954
3.836,26.2058536599632
3.837,18.5171503754134
3.838,6.73992906770099
3.839,-0.462420430557443
3.84,-0.0437439154534929
3.841,8.60155085394856
3.842,24.8311113471238
3.843,40.7907952840636
3.844,54.4090989040709
3.845,58.4718042923368
3.846,57.0544819961581
3.847,42.8246297758257
3.848,25.4998075610085
3.849,8.03053072454123
3.85,-0.375578531567186
3.851,-0.535296640331446
3.852,6.01486987253139
3.853,17.5162125578603
3.854,25.8677588476195
3.855,30.1127953944957
3.856,26.1487000556459
3.857,17.0539150880438
3.858,6.77028920472177
3.859,-0.0936897641655356
3.86,-0.305130862912248
3.861,9.63407738729696
3.862,24.6499094940898
3.863,41.0890315062544
3.864,54.4572425811185
3.865,60.7259337437302
3.866,58.6541775527494
3.867,42.6602148187929
3.868,25.7354323650545
3.869,8.71400680067718
3.87,-0.0885225730251628
3.871,-0.396462118872676
3.872,6.847926258408
3.873,16.7219274762918
3.874,25.5173251166195
3.875,30.2528855811282
3.876,25.7221890558392
3.877,16.9589691366783
3.878,6.43672260272747
3.879,-0.339983985022567
3.88,-0.104344307667059
3.881,9.16492570161769
3.882,23.7367986698259
3.883,40.6999459748588
3.884,55.7406932376498
3.885,60.4030259096548
3.886,55.1951667875042
3.887,43.454508988057
3.888,23.3464749254874
3.889,8.23747832321497
3.89,0.0595818700209266
3.891,0.0242500066349383
3.892,7.20845478812135
3.893,19.2134024288456
3.894,28.0432567914877
3.895,28.6326292157771
3.896,28.460080606904
3.897,18.2984304085297
3.898,6.52581262007345
3.899,-0.163668119465248
3.9,0.458731760160832
3.901,8.92448118023972
3.902,24.4173515063746
3.903,42.8481171147174
3.904,52.1349490730251
3.905,58.1904772886917
3.906,54.63661265047
3.907,40.6097878445248
3.908,24.6621320869757
3.909,9.75912677426135
3.91,0.0889982898895823
3.911,-0.29479158472077
3.912,7.58315375213204
3.913,17.584125582824
3.914,27.5093506288922
3.915,30.7696297199309
3.916,27.0680468889048
3.917,16.6085620690458
3.918,6.68050319987219
3.919,0.0354983225745045
3.92,-0.0738521493812845
3.921,8.59623173527438
3.922,23.4617438595765
3.923,42.6875360698304
3.924,55.2924172223192
3.925,59.4343367815534
3.926,55.9636805712816
3.927,41.3851500569478
3.928,25.3321451215696
3.929,9.93605839646001
3.93,0.289748158974966
3.931,-0.437708869950712
3.932,5.81043520582717
3.933,17.5464008807849
3.934,25.5909131892641
3.935,30.1931249151622
3.936,25.8351508992303
3.937,17.1485707891909
3.938,6.8099810360065
3.939,-0.571415866552217
3.94,0.421230526963605
3.941,10.0090906395858
3.942,24.5867352667248
3.943,40.0287960644287
3.944,54.6472611943123
3.945,59.278900284681
3.946,55.923056918627
3.947,41.383394003514
3.948,24.1016424665916
3.949,8.61861001702214
3.95,0.204083159956689
3.951,-0.42912687357766
3.952,6.44860912541429
3.953,17.1700149952227
3.954,25.4841616128621
3.955,30.5879006016019
3.956,26.5635683665581
3.957,17.168960122368
3.958,6.78445699781693
3.959,-0.489218337546828
3.96,0.0972003356515927
3.961,9.20537689272058
3.962,23.2137030760536
3.963,38.9682345424198
3.964,53.3706371571498
3.965,59.2948150602675
3.966,56.2339744413893
3.967,40.1938303163618
3.968,23.7616266439519
3.969,9.51286204179565
3.97,0.059672750752392
3.971,-0.297313402708051
3.972,6.68269389608667
3.973,16.4755517466374
3.974,26.9993544033944
3.975,28.8971742625434
3.976,27.1669660424127
3.977,17.5842934308469
3.978,6.95909617700638
3.979,-0.135957786818673
3.98,0.0766962221337697
3.981,8.61393770185509
3.982,24.6159378580992
3.983,41.8815440717562
3.984,53.8891010392513
3.985,60.0757694296485
3.986,55.1473621625035
3.987,41.6626661713744
3.988,23.6099993795939
3.989,8.02899120325642
3.99,-0.108538751339922
3.991,-0.202086740070073
3.992,6.9625236483957
3.993,17.7822128912869
3.994,27.1425078517136
3.995,29.840358902764
3.996,28.5774306074779
3.997,17.2424637393817
3.998,6.62329326117491
3.999,-0.454735988271851
4,0.271372306396192
4.001,9.29623881978031
4.002,25.1250808575289
4.003,40.9888442374622
4.004,56.0487321398675
4.005,57.4471201550503
4.006,56.5294220435561
4.007,41.1818436889271
4.008,24.455243809495
4.009,9.03753487843743
4.01,-0.0511049620339834
4.011,-0.395177990357944
4.012,6.82913040150513
4.013,16.8421142828422
4.014,25.8422101943215
4.015,28.5843591871176
4.016,26.7954173168261
4.017,16.6639102872076
4.018,6.24311266469595
4.019,-0.435230976471652
4.02,0.250484312135107
4.021,8.48899420624784
4.022,23.9796727842582
4.023,41.4898518345933
4.024,56.2571614750689
4.025,60.9097000883185
4.026,56.474922053128
4.027,41.474047830053
4.028,24.5848399308349
4.029,8.69721353610522
4.03,0.00588186920093427
4.031,-0.374972198975049
4.032,6.2591364660925
4.033,16.8998560216829
4.034,26.357285163664
4.035,30.1591138352353
4.036,26.6684987502635
4.037,17.5566180074618
4.038,7.73872181344962
4.039,-0.127416914780125
4.04,0.0166839534569259
4.041,9.17584114697944
4.042,24.0537326266967
4.043,41.7454170671097
4.044,52.65709853832
4.045,60.0110476425805
4.046,52.5875158055215
4.047,41.3492098603075
4.048,26.6322851087768
4.049,7.9261150897127
4.05,-0.119016123555411
4.051,-0.0726921132223879
4.052,7.51291934298349
4.053,17.2536012826438
4.054,26.4586775005655
4.055,30.9424553830026
4.056,26.5019005690504
4.057,15.9072394402808
4.058,6.71447421538774
4.059,-0.337853023417943
4.06,0.210571275306124
4.061,7.91790856015379
4.062,25.0980891378531
4.063,40.2170889345229
4.064,54.6040065557725
4.065,59.3365395939258
4.066,54.1865768534667
4.067,41.1178573447053
4.068,22.3891116331192
4.069,8.41769390210557
4.07,0.143243656126878
4.071,-0.552663608034127
4.072,6.66856809912814
4.073,16.1469591578895
4.074,26.9077040955287
4.075,29.9035598355452
4.076,25.6527655711108
4.077,18.6653248839236
4.078,7.24252295646183
4.079,-0.530281454356262
4.08,0.415730455142823
4.081,8.66467154460142
4.082,24.6153798044983
4.083,41.3080719862626
4.084,55.1847851326939
4.085,59.7868294406306
4.086,54.1758359853637
4.087,40.6602254401708
4.088,25.9861722267706
4.089,8.28827374513859
4.09,-0.193626476996865
4.091,-0.491119045152018
4.092,7.25987347979702
4.093,16.4556703705002
4.094,27.7203404217408
4.095,30.3339701434256
4.096,25.8184253745119
4.097,17.4326835967887
4.098,5.81524539726767
4.099,-0.425773761946285
4.1,0.0380508109587597
4.101,9.19099306617934
4.102,25.1292792996578
4.103,42.0768738109286
4.104,52.246821803044
4.105,59.4225889355544
4.106,54.4821138831594
4.107,43.1852757130859
4.108,23.6835782990349
4.109,8.12097140733246
4.11,-0.115215212798135
4.111,-0.5089071242239
4.112,6.73151813539796
4.113,16.268133947426
4.114,25.456909450534
4.115,30.8810695237796
4.116,26.4081453901628
4.117,16.399674485474
4.118,5.90362346342659
4.119,-0.319071902069588
4.12,0.142872353310997
4.121,8.70383599992936
4.122,25.1818250050496
4.123,39.7234024229066
4.124,55.441510581184
4.125,59.693589641245
4.126,54.4942674814255
4.127,41.076578244186
4.128,25.8683196107647
4.129,8.73905385101128
4.13,-0.335679935057836
4.131,-0.344214699964951
4.132,6.10151045192996
4.133,17.2731705307761
4.134,25.3689932404635
4.135,28.8568965833768
4.136,27.1191520369134
4.137,17.4096020197738
4.138,6.92197569838651
4.139,-0.325041429883123
4.14,0.0552459545889393
4.141,8.50924647047331
4.142,24.2986036722178
4.143,43.0625596016683
4.144,54.2804226439004
4.145,61.569841860391
4.146,55.8613291501148
4.147,41.3883999887127
4.148,25.3361946184861
4.149,9.61297675409045
4.15,-0.0414562211151686
4.151,-0.210414103910561
4.152,7.1156309949707
4.153,18.4286738974638
4.154,27.176646186306
4.155,29.5434054302393
4.156,28.2367050780851
4.157,17.1091438382895
4.158,6.23912913930935
4.159,-0.273509991860034
4.16,-0.0744419334629603
4.161,8.47682237401193
4.162,24.992851372921
4.163,41.5933635099766
4.164,50.3759905625078
4.165,60.8846792703124
4.166,55.0362429052925
4.167,41.9406358354719
4.168,24.7865635819823
4.169,9.94649963265102
4.17,-0.0308093392753715
4.171,-0.0992074253323159
4.172,6.98276341896946
4.173,17.9689041518579
4.174,26.8783277585233
4.175,30.800881904006
4.176,27.4832611209844
4.177,17.8062995237781
4.178,6.18676352686657
4.179,-0.388416064103802
4.18,-0.152874487867761
4.181,9.82864104937389
4.182,24.4070501587884
4.183,39.9061177154133
4.184,53.876468994092
4.185,58.940266856947
4.186,55.1666355374888
4.187,40.7090953308897
4.188,25.0537488820449
4.189,8.83703250734174
4.19,0.332627706248193
4.191,-0.470556529769276
4.192,5.72417665240194
4.193,17.3424241970113
4.194,26.4201296541854
4.195,31.4721168316241
4.196,27.5111143504991
4.197,17.2522613758204
4.198,7.25937967474182
4.199,-0.446309053301551
4.2,0.126221897961777
4.201,8.55719670248512
4.202,24.460297860665
4.203,40.0061345575346
4.204,54.216007866481
4.205,60.0935960160845
4.206,55.1952801394483
4.207,39.7708587362969
4.208,24.1272630358183
4.209,9.27419190598157
4.21,-0.311108086912535
4.211,-0.479832449139431
4.212,6.36100945454051
4.213,17.1923236604373
4.214,27.0229426063712
4.215,29.2051018098763
4.216,26.7815939105446
4.217,16.6742970663465
4.218,7.28218535349863
4.219,-0.34294300303953
4.22,-0.108678561326364
4.221,8.57151879933942
4.222,25.147628094071
4.223,42.0757077793799
4.224,53.7974793378426
4.225,59.236465320276
4.226,57.5853186395344
4.227,41.6901033449787
4.228,24.5922545440765
4.229,8.83884456631545
4.23,-0.0750429830750492
4.231,0.135955887860193
4.232,6.49559608571674
4.233,16.8467294683005
4.234,26.8287900304909
4.235,29.8166671755331
4.236,26.082324057017
4.237,16.638251526177
4.238,6.79462269760863
4.239,-0.37465821080781
4.24,0.309395481191218
4.241,9.44635863629664
4.242,23.9339636840532
4.243,38.7109620338787
4.244,55.25473904548
4.245,63.7838146995193
4.246,53.1684456879522
4.247,41.0225288630398
4.248,23.2657057050463
4.249,8.5722080414879
4.25,-0.0901695365059592
4.251,-0.135721330098834
4.252,6.91043566337295
4.253,17.8151634783185
4.254,26.7968317795928
4.255,30.7162573477169
4.256,25.9882967503557
4.257,18.7783003250319
4.258,6.72916738393873
4.259,-0.272766699798003
4.26,0.333716767489453
4.261,9.39754926094003
4.262,25.4324233490062
4.263,42.1703713214678
4.264,54.9964723945593
4.265,60.8962899484103
4.266,53.920565769123
4.267,42.4753655096748
4.268,24.1518462402584
4.269,9.48857083562349
4.27,-0.283203534000714
4.271,-0.33642432583247
4.272,6.83766910451652
4.273,16.5858220289981
4.274,26.2618425331081
4.275,29.624991306612
4.276,25.5137902717689
4.277,17.4812322969933
4.278,7.45096184172913
4.279,-0.532898579488772
4.28,-0.0597752089104352
4.281,9.17633096846597
4.282,24.396342033408
4.283,39.4779275310261
4.284,54.682754414326
4.285,59.9970376513722
4.286,55.4503062341453
4.287,40.8480452801397
4.288,23.8552148746125
4.289,8.32897197285133
4.29,-0.169687784531518
4.291,-0.299255503245456
4.292,7.63932880528785
4.293,17.1960994316097
4.294,26.7073115401966
4.295,32.074178722482
4.296,25.6792816668719
4.297,18.4840266997632
4.298,6.52380890537372
4.299,-0.375081492258706
4.3,-0.147422357099903
4.301,8.46933982357191
4.302,23.2289649089607
4.303,43.7652736080028
4.304,57.1716136527042
4.305,60.3762759524841
4.306,52.8797002699038
4.307,44.1766553619688
4.308,25.272886253133
4.309,8.83823282458753
4.31,-0.155680664835816
4.311,-0.391774241005797
4.312,6.7414973896743
4.313,17.3521765337203
4.314,27.4588987015163
4.315,30.3737638477992
4.316,25.7777915448713
4.317,17.9674202959696
4.318,6.06497515290603
4.319,-0.306896833352194
4.32,0.560888320038672
4.321,9.24853522749062
4.322,25.4641570750935
4.323,41.2894064217565
4.324,54.2085035143835
4.325,59.7615955496261
4.326,52.3384420986975
4.327,38.9828363063932
4.328,24.5544506637181
4.329,8.80719933664954
4.33,-0.1202699388789
4.331,-0.222660403185748
4.332,6.15994476014291
4.333,20.5037584288263
4.334,27.0969056536467
4.335,31.5893164582966
4.336,24.8393646332462
4.337,16.7416698180127
4.338,5.62897696809645
4.339,-0.367263976404975
4.34,0.0642700240072976
4.341,9.09502335749032
4.342,23.8786916388329
4.343,38.4124817017473
4.344,54.6368934438725
4.345,62.7748201969406
4.346,55.2463364380139
4.347,41.4683145208202
4.348,23.4834737100417
4.349,9.16874634325467
4.35,-0.0723453181104869
4.351,-0.101287603993311
4.352,7.33990471575935
4.353,17.7744012941507
4.354,26.5851265985717
4.355,28.6785012087574
4.356,25.6878308930909
4.357,16.7607773939207
4.358,6.46108721588108
4.359,-0.527788952870222
4.36,-0.0294638508742302
4.361,8.6720572134502
4.362,24.3920523685153
4.363,42.1783533191864
4.364,54.387876085635
4.365,58.1827087063847
4.366,54.4879617631028
4.367,40.2423508483145
4.368,23.9948151261415
4.369,8.61432829392686
4.37,0.0483536682671645
4.371,-0.454366596006037
4.372,6.96309333330427
4.373,17.693139435308
4.374,26.6528597618094
4.375,30.0296886419719
4.376,26.6484544930282
4.377,18.8965507055538
4.378,7.36099945196567
4.379,-0.662082908638608
4.38,0.128403783959807
4.381,9.84650018115718
4.382,23.7545594568236
4.383,41.6137006971895
4.384,56.5164724968151
4.385,58.0748501311002
4.386,54.4734899589193
4.387,41.3257201621142
4.388,23.9225280000549
4.389,8.87038049271344
4.39,0.43786946864098
4.391,-0.536642610837921
4.392,7.43009540309412
4.393,18.1132875949604
4.394,27.3667821021514
4.395,30.4224342911327
4.396,26.0038859644615
4.397,16.413952008612
4.398,6.25078860513534
4.399,-0.397831185536508
4.4,-0.158787142443544
4.401,8.87690801229329
4.402,23.0234423567013
4.403,43.4162954440247
4.404,52.8904445371775
4.405,61.5862441701954
4.406,57.6885130796195
4.407,38.7984563866778
4.408,25.6025294501544
4.409,8.34107261490445
4.41,0.00791971704375189
4.411,-0.419606320372075
4.412,5.84184473131705
4.413,18.0189733816595
4.414,26.1599553563584
4.415,31.415002040954
4.416,25.4575305859447
4.417,15.7193779227936
4.418,7.23276813157303
4.419,-0.60118721285847
4.42,0.038663899022277
4.421,9.03731683798717
4.422,24.1600244631841
4.423,41.2780496903832
4.424,56.8038433204917
4.425,59.2436743873768
4.426,55.658781336683
4.427,42.5059384889654
4.428,24.1853213724351
4.429,9.51769347462519
4.43,-0.0588698034022154
4.431,-0.0516756908083629
4.432,7.37970296324456
4.433,17.4110435333466
4.434,27.1329741005257
4.435,30.521337211512
4.436,26.299534501413
4.437,16.7453780491234
4.438,6.38142215191926
4.439,-0.440638411056327
4.44,0.127928959522263
4.441,8.5111399528984
4.442,24.1863885784862
4.443,41.1221370104315
4.444,52.8324823448144
4.445,59.5921883219031
4.446,55.5868479387004
4.447,43.3523193101768
4.448,23.973270726027
4.449,8.85954960207617
4.45,0.217205515912417
4.451,-0.125469489854206
4.452,6.91919431493248
4.453,17.3895061697565
4.454,25.8754559438291
4.455,30.501260872103
4.456,25.8587511687625
4.457,17.1711335943608
4.458,7.39205140620868
4.459,-0.432124035651728
4.46,-0.243380249756713
4.461,9.67438287201391
4.462,24.3186867543619
4.463,42.1782405547146
4.464,55.4009540997294
4.465,62.9025538571617
4.466,53.201323827441
4.467,42.0520771753576
4.468,23.7267258902966
4.469,9.31157577728326
4.47,0.146587228781281
4.471,-0.515511959793245
4.472,6.35709226315346
4.473,16.5919214193264
4.474,26.2553686600844
4.475,30.9397260128706
4.476,26.7305530381996
4.477,16.9404844795303
4.478,6.30622809227833
4.479,-0.411924986908267
4.48,-0.0170553851080312
4.481,9.07243712948304
4.482,24.3155209922079
4.483,42.3434220175828
4.484,54.261012746146
4.485,60.0402670086812
4.486,54.196785378428
4.487,42.6069417973858
4.488,24.7407338681121
4.489,9.78019383207477
4.49,0.156519453134387
4.491,-0.363980175135425
4.492,7.02761292490346
4.493,17.2830949722536
4.494,27.7908751225441
4.495,29.5774439514995
4.496,25.4167626501047
4.497,17.5702778358758
4.498,6.2490084850115
4.499,-0.574226401110165
4.5,0.0992301223428597
4.501,9.03518908952208
4.502,24.6469187338308
4.503,40.0518092112399
4.504,56.2301754625192
4.505,61.733415716448
4.506,55.7514401687513
4.507,43.3194597181947
4.508,23.6228304137001
4.509,8.67139901470814
4.51,-0.0673938700464473
4.511,-0.48944839494061
4.512,6.24282905224948
4.513,17.0529948784524
4.514,26.1508694648893
4.515,30.0833603922713
4.516,26.8227375293257
4.517,17.392757135649
4.518,6.89954283196062
4.519,-0.537675957392669
4.52,0.168410989068047
4.521,9.57962356136966
4.522,23.7740815976013
4.523,41.4310923792304
4.524,54.6528102433717
4.525,60.8772332270652
4.526,55.4448552555115
4.527,39.4567936007005
4.528,26.529025374071
4.529,8.31807435784301
4.53,0.195662842865267
4.531,-0.444080273815535
4.532,6.84268932154831
4.533,17.3774126051392
4.534,25.947863308739
4.535,30.0429480134177
4.536,27.1770684437479
4.537,16.9902583193103
4.538,6.45234048760676
4.539,-0.0923388580893256
4.54,0.13031471858182
4.541,9.10723884837009
4.542,23.6329246429837
4.543,40.9525500861645
4.544,52.2004513618809
4.545,60.169182544826
4.546,54.8285933773604
4.547,39.9190347045457
4.548,23.6999334971097
4.549,9.39671813351459
4.55,0.214050101100665
4.551,-0.245078031061644
4.552,6.57640618067518
4.553,17.9803667116285
4.554,25.8168948203269
4.555,29.2803125762325
4.556,26.2649680407615
4.557,18.5663587228751
4.558,6.96191634988953
4.559,-0.219882177786419
4.56,-0.0627978878161455
4.561,9.56810215057757
4.562,24.7765993949945
4.563,40.3147559725151
4.564,54.7468959323008
4.565,58.7743438105382
4.566,53.6247496907632
4.567,39.8451927071527
4.568,25.2703806855792
4.569,9.14064084093313
4.57,-0.0969685546674086
4.571,-0.464435304929629
4.572,7.13586750695301
4.573,17.9900354233003
4.574,27.3047398240116
4.575,29.6494523249337
4.576,26.9919205529521
4.577,16.8005010135285
4.578,7.76379272708645
4.579,-0.399571330146291
4.58,-0.244564841286121
4.581,8.47844749081389
4.582,25.8699632500402
4.583,40.9543314591615
4.584,55.1117443042881
4.585,59.1778366333747
4.586,56.5088766645149
4.587,39.8241107847813
4.588,23.5781740570207
4.589,9.3181990349647
4.59,0.134767633928848
4.591,-0.363322377273862
4.592,7.23660059478203
4.593,16.4461913198049
4.594,28.3225641754672
4.595,30.6101874554237
4.596,26.0300520535223
4.597,17.7358890441581
4.598,6.80565177970669
4.599,-0.159555349868444
4.6,-0.318528314500001
4.601,8.28886737356116
4.602,23.6161692894382
4.603,41.7331797261655
4.604,53.8289360835532
4.605,60.0985269998942
4.606,56.4178765792803
4.607,41.3908593922871
4.608,25.0726963034732
4.609,10.2115558629864
4.61,-0.201830704663976
4.611,-0.0449999755618364
4.612,7.47250249430721
4.613,18.2062939113579
4.614,25.5384238885237
4.615,29.3976877254273
4.616,26.0848815262551
4.617,16.752767732725
4.618,6.56939762475918
4.619,-0.374608113776381
4.62,0.0457323523207699
4.621,8.42810611809254
4.622,24.5673914188045
4.623,39.8380016794752
4.624,55.2304085396106
4.625,59.5330725170573
4.626,54.6763610586185
4.627,42.8440667905791
4.628,25.4327246862723
4.629,8.80325149793396
4.63,0.0649600375892257
4.631,-0.441254571011281
4.632,7.10342984600911
4.633,16.6173251339053
4.634,25.637063077822
4.635,31.0063519193627
4.636,27.5379065571135
4.637,16.827459885416
4.638,7.00277158838806
4.639,-0.467629134887873
4.64,0.0536233649788568
4.641,8.65820593247638
4.642,24.2249137289987
4.643,41.5788152548686
4.644,56.7094820595191
4.645,59.0232551528874
4.646,54.892185873756
4.647,41.4250048925764
4.648,24.7003911721325
4.649,8.90019844407452
4.65,-0.149598353081788
4.651,-0.181843997976272
4.652,6.54686027487206
4.653,18.6042849373361
4.654,26.933133668332
4.655,30.3302927459379
4.656,27.6188033750443
4.657,17.2594450373969
4.658,6.48535014526894
4.659,-0.495139091901991
4.66,-0.168737770740294
4.661,8.34724498993636
4.662,24.6378788135465
4.663,39.1668639004787
4.664,55.7629825647543
4.665,58.2834078625487
4.666,54.7889899141585
4.667,41.0747511307561
4.668,21.7552957060504
4.669,9.28467933826579
4.67,0.140389920163267
4.671,-0.22038288625063
4.672,7.06654207851779
4.673,16.9607917342059
4.674,26.4413912995298
4.675,30.0120395803144
4.676,25.7003509210095
4.677,18.4470809155889
4.678,5.96751156370528
4.679,-0.194894384979997
4.68,-0.0355275460658536
4.681,8.26410108385786
4.682,24.0812197299495
4.683,41.5425631763969
4.684,53.8667945874633
4.685,59.5091497036926
4.686,52.9574967724189
4.687,40.565322638972
4.688,24.8022488557693
4.689,8.908082645756
4.69,-0.265620216262288
4.691,-0.260480353158052
4.692,6.0086945947805
4.693,16.4831894081399
4.694,26.0434680733086
4.695,31.5643053708131
4.696,25.6454851415035
4.697,16.545231293988
4.698,6.97085504213029
4.699,-0.279440197995944
4.7,0.0301133373107699
4.701,7.8439664040488
4.702,24.5780206471374
4.703,41.8855736021625
4.704,54.7630647695493
4.705,59.9249488926769
4.706,52.5758540147162
4.707,40.4461056345442
4.708,22.7791411382344
4.709,9.41103018148315
4.71,0.0587974212212249
4.711,-0.493046130744299
4.712,6.6565729660243
4.713,16.4890864400838
4.714,25.7965705874241
4.715,30.0559850790763
4.716,25.6145529040791
4.717,17.3806241973445
4.718,6.16930972390542
4.719,-0.564251233092965
4.72,-0.208431965784801
4.721,7.41091875993359
4.722,25.0772126304076
4.723,40.0112551366583
4.724,54.3324019655821
4.725,60.4087061249628
4.726,54.5266828934777
4.727,40.5560233814696
4.728,24.7845809537513
4.729,8.11453686931772
4.73,-0.0284085893569387
4.731,-0.20689128286574
4.732,6.86623677890259
4.733,18.3017812808713
4.734,27.781131436456
4.735,29.4008191271456
4.736,26.0602704337736
4.737,16.8151292622813
4.738,6.54481613512309
4.739,-0.293713035806594
4.74,-0.320458135308891
4.741,9.02674201681808
4.742,23.7105675763379
4.743,41.2110662842367
4.744,53.8515057297651
4.745,59.8060337324107
4.746,57.1521875353044
4.747,43.1313369250036
4.748,23.3634558055225
4.749,9.16915551583586
4.75,0.361588801376872
4.751,-0.299271210836682
4.752,6.68587897289376
4.753,17.5884275607919
4.754,26.7339984011574
4.755,28.9245954687176
4.756,26.0001466048518
4.757,17.2291317586626
4.758,7.17947018598936
4.759,-0.413316092240213
4.76,0.315887751901387
4.761,9.7742388644397
4.762,23.4178355072418
4.763,40.4442132570007
4.764,53.7085838136147
4.765,59.5267541914246
4.766,53.8446070289325
4.767,42.093135804821
4.768,24.3005014478324
4.769,9.08125361879854
4.77,-0.11139659619435
4.771,-0.299844213661956
4.772,7.06298656027409
4.773,16.8977591526463
4.774,28.1067978905991
4.775,30.3921855610533
4.776,26.1634042309306
4.777,17.6452240115329
4.778,5.61653555930419
4.779,-0.233772387896735
4.78,-0.000689584736216239
4.781,8.1245296249889
4.782,25.2367419848826
4.783,42.5563501577425
4.784,56.6575330408908
4.785,63.2926645727663
4.786,54.3908789246746
4.787,41.4266868542348
4.788,24.3471681045087
4.789,9.63801465776968
4.79,0.318947837951602
4.791,-0.213621905399952
4.792,6.93876768148765
4.793,16.949775043641
4.794,28.0713669082745
4.795,29.0670326466724
4.796,26.1252166700447
4.797,17.1195833254906
4.798,6.48525102810793
4.799,-0.51901178335285
4.8,-0.196149970203505
4.801,9.1929254388109
4.802,23.8573562478429
4.803,40.7943919088287
4.804,54.754610622133
4.805,58.5173612671305
4.806,54.1946534238047
4.807,41.5834279205377
4.808,22.8488133246357
4.809,8.1076971558045
4.81,-0.294902409916374
4.811,-0.486066011460923
4.812,6.8503927426021
4.813,16.9564801057354
4.814,25.9133402424283
4.815,31.5908025401138
4.816,24.7861922569707
4.817,18.0723289357612
4.818,5.41870796380423
4.819,-0.528206096642627
4.82,0.103524187369653
4.821,8.97886520648934
4.822,24.3747659167874
4.823,42.2494908577448
4.824,54.7957241532353
4.825,59.5163061006075
4.826,54.4532678901802
4.827,41.0500226364031
4.828,23.8672515813634
4.829,8.54693078908072
4.83,-0.0656411469108632
4.831,-0.196573687208589
4.832,7.20731597470501
4.833,17.0719239251262
4.834,27.6882580277504
4.835,31.0565183210687
4.836,25.8871935460441
4.837,16.5056232195294
4.838,7.31996484272638
4.839,-0.430090820491242
4.84,0.0740985942400723
4.841,9.87455017996683
4.842,25.1856224047987
4.843,41.7835324303687
4.844,54.7272143427741
4.845,62.1645022375237
4.846,54.4055519563796
4.847,42.1474652747313
4.848,24.8759759574288
4.849,9.15048043132681
4.85,0.0658067047875429
4.851,-0.4079583537581
4.852,6.13909325740671
4.853,17.6548798313502
4.854,25.3506408524655
4.855,28.6777909382191
4.856,27.4879034458495
4.857,17.5724922960582
4.858,6.87866769484331
4.859,-0.330776312993883
4.86,0.189641580923629
4.861,9.41913821124227
4.862,25.3400475855783
4.863,41.4509129980724
4.864,55.5581784795755
4.865,59.194021408052
4.866,54.8033953461008
4.867,41.0031099913114
4.868,23.2019615381211
4.869,9.12638708230126
4.87,0.0484707645498275
4.871,-0.318430715334797
4.872,6.41848674307826
4.873,18.9861550347127
4.874,26.1608498395572
4.875,29.1237386835265
4.876,25.930303470326
4.877,16.8838155352485
4.878,6.77591215006684
4.879,-0.413157232924602
4.88,-0.270281132142164
4.881,8.84840838630629
4.882,24.2055131826112
4.883,40.8965389120996
4.884,54.5004100610796
4.885,61.8880998094071
4.886,54.811697500272
4.887,43.1095899947655
4.888,23.7649384709174
4.889,8.86268118699722
4.89,-0.0173046069305587
4.891,-0.492836170987407
4.892,6.34907786910383
4.893,17.8623408761762
4.894,25.4908468022632
4.895,30.5224444704598
4.896,25.4101642128698
4.897,17.2009903730417
4.898,7.13019185587244
4.899,-0.622463519155701
4.9,-0.230895364044085
4.901,8.91963791417686
4.902,25.2995492091547
4.903,42.8938337871239
4.904,55.7454356428748
4.905,60.3266830931551
4.906,53.2203168692377
4.907,43.0656637399299
4.908,23.0784498841138
4.909,9.22639064266162
4.91,-0.162210647663884
4.911,-0.686446745415479
4.912,7.38278901032647
4.913,17.0646935182141
4.914,24.4766244571719
